wavelength (nm),intensity ((uW/cm^2)/nm)
345.346,0.009204873
345.638,0.099005799
345.929,0.022347772
346.220,0.120112505
346.511,0.08080571
346.802,0.09161834
347.093,0.089537203
347.385,0.096812475
347.676,0.094453316
347.967,0.102114076
348.258,0.098567979
348.549,0.101617814
348.840,0.099341288
349.131,0.099783758
349.422,0.096103307
349.713,0.099070563
350.004,0.095978257
350.295,0.094262495
350.586,0.093899256
350.877,0.095484829
351.167,0.098694037
351.458,0.104909085
351.749,0.10394526
352.040,0.106079862
352.331,0.102701451
352.621,0.106812656
352.912,0.102702296
353.203,0.105477889
353.494,0.105668159
353.784,0.111496958
354.075,0.108789692
354.366,0.112004755
354.656,0.105244205
354.947,0.104655187
355.238,0.103853445
355.528,0.104231608
355.819,0.103161805
356.109,0.107581539
356.400,0.104041689
356.690,0.10872248
356.981,0.110803812
357.271,0.114254197
357.562,0.110289472
357.852,0.111556546
358.142,0.106197503
358.433,0.111622246
358.723,0.113366164
359.014,0.111873379
359.304,0.114392564
359.594,0.114899843
359.885,0.112462922
360.175,0.116004605
360.465,0.113888987
360.755,0.116160635
361.045,0.118694917
361.336,0.121895268
361.626,0.122588015
361.916,0.126220522
362.206,0.120078805
362.496,0.119156364
362.786,0.11704901
363.076,0.118567072
363.366,0.119795496
363.656,0.12674611
363.946,0.129200272
364.236,0.134683629
364.526,0.132901753
364.816,0.129543315
365.106,0.131114551
365.396,0.133991425
365.686,0.140417291
365.976,0.145391601
366.266,0.146942893
366.556,0.153119301
366.846,0.145850172
367.135,0.148284799
367.425,0.140075102
367.715,0.139156674
368.005,0.140020258
368.294,0.14497765
368.584,0.144112079
368.874,0.144832796
369.163,0.138719699
369.453,0.138461337
369.743,0.139467774
370.032,0.136745608
370.322,0.134079564
370.611,0.140095355
370.901,0.141890067
371.190,0.146557635
371.480,0.148773013
371.769,0.147470716
372.059,0.140172853
372.348,0.148316689
372.638,0.148399411
372.927,0.159372267
373.216,0.155277548
373.506,0.160653602
373.795,0.164336294
374.084,0.158558408
374.374,0.152352962
374.663,0.158214454
374.952,0.152144671
375.242,0.149938581
375.531,0.138979395
375.820,0.147011763
376.109,0.143874049
376.398,0.149536764
376.687,0.141597186
376.977,0.149808136
377.266,0.148059342
377.555,0.144182467
377.844,0.151973458
378.133,0.158167392
378.422,0.146599207
378.711,0.152820801
379.000,0.148053975
379.289,0.158405355
379.578,0.154588026
379.867,0.151480529
380.156,0.145649983
380.444,0.146642209
380.733,0.143180512
381.022,0.13631493
381.311,0.133982149
381.600,0.133259933
381.889,0.131765256
382.177,0.132477592
382.466,0.132930813
382.755,0.134303041
383.043,0.134249514
383.332,0.128128744
383.621,0.130487784
383.909,0.128983133
384.198,0.127436456
384.487,0.122149964
384.775,0.120102651
385.064,0.126914641
385.352,0.121807794
385.641,0.122717357
385.929,0.126166061
386.218,0.125506766
386.506,0.126935769
386.795,0.130721651
387.083,0.130617155
387.372,0.124627211
387.660,0.124090904
387.948,0.125384136
388.237,0.121113577
388.525,0.123020924
388.813,0.115896177
389.101,0.114685222
389.390,0.10986614
389.678,0.107013147
389.966,0.098016044
390.254,0.098851982
390.543,0.091207967
390.831,0.094401872
391.119,0.095928999
391.407,0.093363557
391.695,0.096334944
391.983,0.09778537
392.271,0.098402046
392.559,0.099671567
392.847,0.101546661
393.135,0.104901708
393.423,0.098931331
393.711,0.107022198
393.999,0.105766577
394.287,0.105456906
394.575,0.101104557
394.863,0.101960881
395.151,0.10125017
395.438,0.10220578
395.726,0.102985198
396.014,0.101991094
396.302,0.100710526
396.589,0.098358779
396.877,0.097573045
397.165,0.100163476
397.453,0.092718614
397.740,0.092146397
398.028,0.089005923
398.315,0.089977455
398.603,0.087019186
398.891,0.090780099
399.178,0.08244473
399.466,0.079457977
399.753,0.081399543
400.041,0.080984351
400.328,0.081588965
400.616,0.078790969
400.903,0.079659616
401.191,0.083973316
401.478,0.07986087
401.765,0.083357969
402.053,0.084216763
402.340,0.085926282
402.627,0.079291165
402.915,0.081819155
403.202,0.079817324
403.489,0.080701255
403.776,0.078746538
404.064,0.07524499
404.351,0.07457986
404.638,0.076088876
404.925,0.072451674
405.212,0.072091917
405.499,0.066424534
405.786,0.066983262
406.073,0.064401252
406.360,0.072094333
406.647,0.072038987
406.935,0.076592326
407.221,0.074545643
407.508,0.078877829
407.795,0.07714476
408.082,0.079765648
408.369,0.076806564
408.656,0.083022072
408.943,0.08298432
409.230,0.089578758
409.517,0.090979008
409.803,0.095866131
410.090,0.094245069
410.377,0.098037989
410.664,0.096333827
410.950,0.09604873
411.237,0.094484885
411.524,0.097256469
411.810,0.099287211
412.097,0.106134034
412.384,0.099502792
412.670,0.105823675
412.957,0.105697195
413.243,0.106093339
413.530,0.106015944
413.816,0.106042551
414.103,0.101589048
414.389,0.106829846
414.676,0.106412045
414.962,0.108268
415.248,0.114734734
415.535,0.115592513
415.821,0.111158307
416.108,0.12040844
416.394,0.125913949
416.680,0.129493647
416.966,0.130853353
417.253,0.136792651
417.539,0.138573276
417.825,0.14833108
418.111,0.15214667
418.397,0.161051905
418.684,0.165577677
418.970,0.172423662
419.256,0.173914763
419.542,0.181445851
419.828,0.183995093
420.114,0.187878989
420.400,0.195331396
420.686,0.203946867
420.972,0.207194034
421.258,0.219185891
421.544,0.223335876
421.830,0.231374527
422.116,0.238783151
422.401,0.24726831
422.687,0.254271171
422.973,0.268055118
423.259,0.278690153
423.545,0.290812795
423.831,0.296955942
424.116,0.306467344
424.402,0.319058775
424.688,0.334152647
424.973,0.345023905
425.259,0.362716674
425.545,0.377126633
425.830,0.396078596
426.116,0.41790478
426.401,0.437459944
426.687,0.456270012
426.973,0.477791035
427.258,0.497914035
427.543,0.525582611
427.829,0.550653318
428.114,0.580026916
428.400,0.602815856
428.685,0.632626356
428.971,0.660861999
429.256,0.692820691
429.541,0.728182811
429.827,0.75632278
430.112,0.790486122
430.397,0.825943736
430.682,0.860957243
430.968,0.898528633
431.253,0.942970412
431.538,0.99152772
431.823,1.03460282
432.108,1.086042652
432.393,1.137320949
432.679,1.191199157
432.964,1.244837207
433.249,1.297227999
433.534,1.359980769
433.819,1.42365411
434.104,1.484951659
434.389,1.552768315
434.674,1.618406531
434.959,1.686707959
435.244,1.761249922
435.528,1.842054964
435.813,1.926252222
436.098,2.01082719
436.383,2.096432144
436.668,2.187386129
436.953,2.276955514
437.237,2.372737069
437.522,2.470735302
437.807,2.577222553
438.091,2.678435819
438.376,2.786833594
438.661,2.894330468
438.945,3.008624993
439.230,3.135865182
439.515,3.266947145
439.799,3.397903179
440.084,3.535020253
440.368,3.67410318
440.653,3.829926129
440.937,3.983176864
441.222,4.144159579
441.506,4.304265007
441.790,4.475764541
442.075,4.6444039
442.359,4.819961035
442.644,4.997344098
442.928,5.184742241
443.212,5.371568286
443.497,5.569334379
443.781,5.765810531
444.065,5.965292879
444.349,6.183978205
444.633,6.419034453
444.918,6.656072478
445.202,6.904665345
445.486,7.157143877
445.770,7.429524143
446.054,7.702959548
446.338,7.974451606
446.622,8.243213655
446.906,8.522507148
447.190,8.818063082
447.474,9.131816292
447.758,9.459833573
448.042,9.795225467
448.326,10.13882401
448.610,10.49770854
448.894,10.86353368
449.178,11.24204464
449.461,11.61968822
449.745,12.01337658
450.029,12.40487239
450.313,12.78957541
450.596,13.17778408
450.880,13.57668433
451.164,13.99159799
451.448,14.43703332
451.731,14.88798226
452.015,15.33823353
452.298,15.77102857
452.582,16.2168606
452.866,16.65786753
453.149,17.1176051
453.433,17.58678089
453.716,18.05782742
454.000,18.52429569
454.283,18.95426413
454.566,19.37644052
454.850,19.79538123
455.133,20.18329938
455.417,20.54982623
455.700,20.91460296
455.983,21.26527927
456.267,21.64253398
456.550,22.01457565
456.833,22.36545737
457.116,22.69024647
457.400,22.99080728
457.683,23.26939156
457.966,23.52748621
458.249,23.79123447
458.532,24.04062916
458.815,24.26479431
459.098,24.44497884
459.381,24.54868077
459.664,24.62082141
459.947,24.66363616
460.230,24.73264728
460.513,24.79967743
460.796,24.83388347
461.079,24.83854715
461.362,24.8014379
461.645,24.74894126
461.928,24.66924013
462.211,24.53976786
462.494,24.38306888
462.776,24.19789448
463.059,23.98829168
463.342,23.78240114
463.625,23.55176167
463.907,23.31404928
464.190,23.03443933
464.473,22.73405828
464.755,22.41681734
465.038,22.0931644
465.320,21.76518475
465.603,21.43036408
465.886,21.08308673
466.168,20.73054943
466.451,20.36546293
466.733,19.99776137
467.015,19.62451272
467.298,19.26131548
467.580,18.88659346
467.863,18.50603181
468.145,18.13390932
468.427,17.77007902
468.710,17.40385883
468.992,17.03900221
469.274,16.65966156
469.557,16.28132036
469.839,15.90890847
470.121,15.55246995
470.403,15.20957192
470.685,14.8776248
470.967,14.54597236
471.250,14.22250653
471.532,13.91175193
471.814,13.60435243
472.096,13.29447012
472.378,12.99724882
472.660,12.69957696
472.942,12.41968613
473.224,12.15016317
473.506,11.89323251
473.788,11.63632539
474.070,11.38959537
474.351,11.14403226
474.633,10.90778877
474.915,10.67245243
475.197,10.44033044
475.479,10.21967181
475.760,10.00232987
476.042,9.788954145
476.324,9.579267678
476.606,9.373252346
476.887,9.171938658
477.169,8.973412948
477.451,8.789063608
477.732,8.600297345
478.014,8.414225107
478.295,8.229541926
478.577,8.053877509
478.858,7.874333071
479.140,7.699182702
479.421,7.525866735
479.703,7.355338799
479.984,7.191623173
480.265,7.022674758
480.547,6.859199287
480.828,6.69572845
481.110,6.527097709
481.391,6.364879386
481.672,6.205284743
481.953,6.045933938
482.235,5.894703653
482.516,5.752760693
482.797,5.6080168
483.078,5.469073785
483.359,5.327315674
483.640,5.187773878
483.922,5.051762886
484.203,4.923850245
484.484,4.796336268
484.765,4.678145443
485.046,4.553314273
485.327,4.428409363
485.608,4.308459598
485.889,4.189592727
486.170,4.072710149
486.450,3.961094019
486.731,3.849875605
487.012,3.741282769
487.293,3.642038202
487.574,3.54293619
487.855,3.452017694
488.135,3.359107986
488.416,3.265062885
488.697,3.179584479
488.977,3.093523008
489.258,3.013183727
489.539,2.936112257
489.819,2.85934968
490.100,2.784763022
490.381,2.709984159
490.661,2.641697566
490.942,2.568138186
491.222,2.503403342
491.503,2.435419493
491.783,2.373513939
492.064,2.315153593
492.344,2.255577318
492.624,2.201288081
492.905,2.145254015
493.185,2.092528935
493.465,2.040852665
493.746,1.98955294
494.026,1.939663391
494.306,1.887493359
494.586,1.841655487
494.867,1.791340436
495.147,1.748077872
495.427,1.706209613
495.707,1.660956222
495.987,1.625756204
496.267,1.586984773
496.547,1.54784066
496.827,1.508778852
497.107,1.471858606
497.387,1.432067148
497.667,1.399505709
497.947,1.365441576
498.227,1.333004563
498.507,1.302524415
498.787,1.269348369
499.067,1.234854929
499.347,1.20590249
499.627,1.171368237
499.906,1.140916487
500.186,1.114176558
500.466,1.088631882
500.746,1.06213243
501.025,1.039221606
501.305,1.008493885
501.585,0.984543355
501.864,0.959671024
502.144,0.932642571
502.423,0.90950247
502.703,0.889293118
502.983,0.864498144
503.262,0.844700055
503.542,0.822131183
503.821,0.803311073
504.100,0.783397806
504.380,0.763663518
504.659,0.744522796
504.939,0.727690129
505.218,0.708124524
505.497,0.690808019
505.777,0.675470885
506.056,0.656875516
506.335,0.639714314
506.614,0.627162598
506.894,0.612014468
507.173,0.599294123
507.452,0.584006232
507.731,0.570468424
508.010,0.556167823
508.289,0.542053561
508.568,0.525839538
508.847,0.513155063
509.126,0.499457579
509.405,0.48738908
509.684,0.477513422
509.963,0.465289684
510.242,0.453251292
510.521,0.442473639
510.800,0.431089594
511.079,0.419801856
511.358,0.408212316
511.637,0.399591388
511.915,0.389264636
512.194,0.383518977
512.473,0.374797271
512.752,0.36730096
513.030,0.36063448
513.309,0.353305006
513.588,0.346280822
513.866,0.338463357
514.145,0.330264596
514.423,0.324552977
514.702,0.316711642
514.980,0.312651903
515.259,0.304753937
515.537,0.298862623
515.816,0.291418062
516.094,0.289300576
516.373,0.282579483
516.651,0.277215997
516.929,0.270104311
517.208,0.262521082
517.486,0.257653275
517.764,0.25273328
518.043,0.247665597
518.321,0.247078085
518.599,0.240099275
518.877,0.238116336
519.155,0.234232306
519.434,0.230745056
519.712,0.220980462
519.990,0.216326098
520.268,0.210387717
520.546,0.206526752
520.824,0.204167843
521.102,0.197717332
521.380,0.191911665
521.658,0.187112082
521.936,0.18194443
522.214,0.177213604
522.492,0.171912022
522.770,0.169024122
523.047,0.163514431
523.325,0.162244794
523.603,0.159538194
523.881,0.157939348
524.159,0.152129929
524.436,0.150083397
524.714,0.148477548
524.992,0.146689935
525.269,0.141876152
525.547,0.137230789
525.824,0.134960384
526.102,0.132602865
526.380,0.12880435
526.657,0.129663305
526.935,0.12564862
527.212,0.121526673
527.490,0.118200457
527.767,0.116924364
528.044,0.111859213
528.322,0.108434468
528.599,0.106927562
528.876,0.106854626
529.154,0.10653071
529.431,0.105327573
529.708,0.102492744
529.986,0.101307704
530.263,0.094937013
530.540,0.095286065
530.817,0.093665735
531.094,0.092873226
531.371,0.091991451
531.648,0.09366249
531.926,0.092180886
532.203,0.092951434
532.480,0.089177867
532.757,0.088190458
533.034,0.084894801
533.311,0.085847135
533.588,0.083194762
533.864,0.085153508
534.141,0.083000153
534.418,0.083965761
534.695,0.082151176
534.972,0.081375777
535.249,0.078327854
535.525,0.07916834
535.802,0.076186228
536.079,0.078431566
536.355,0.075476482
536.632,0.076743009
536.909,0.072734827
537.185,0.073757117
537.462,0.071593415
537.739,0.068529204
538.015,0.067505644
538.292,0.065679705
538.568,0.062747696
538.845,0.06425212
539.121,0.061441655
539.397,0.058850629
539.674,0.055528246
539.950,0.056777022
540.227,0.053693196
540.503,0.053681082
540.779,0.051693024
541.055,0.051952427
541.332,0.053130025
541.608,0.05090694
541.884,0.049604969
542.160,0.051721254
542.436,0.049256772
542.713,0.048915158
542.989,0.050086541
543.265,0.05180505
543.541,0.050629524
543.817,0.052926819
544.093,0.053094035
544.369,0.053206926
544.645,0.052295254
544.921,0.052452656
545.197,0.052333977
545.473,0.053371798
545.748,0.05119477
546.024,0.049955316
546.300,0.049980559
546.576,0.049105181
546.852,0.046204973
547.127,0.044704533
547.403,0.042261433
547.679,0.041296089
547.954,0.039465672
548.230,0.039243028
548.506,0.038372226
548.781,0.039277497
549.057,0.038116908
549.332,0.040302053
549.608,0.039687039
549.883,0.038774451
550.159,0.037731081
550.434,0.039602083
550.710,0.040601035
550.985,0.043005171
551.260,0.044002167
551.536,0.044421958
551.811,0.042930418
552.086,0.041604995
552.362,0.037876002
552.637,0.037759716
552.912,0.034161855
553.187,0.032546783
553.463,0.031179255
553.738,0.032780099
554.013,0.031099767
554.288,0.029840519
554.563,0.027771535
554.838,0.027788445
555.113,0.027457347
555.388,0.028481835
555.663,0.027834942
555.938,0.031725266
556.213,0.030899149
556.488,0.032426014
556.763,0.035639747
557.038,0.037641756
557.312,0.035524525
557.587,0.037353448
557.862,0.038295661
558.137,0.037947704
558.411,0.036925184
558.686,0.036042049
558.961,0.03433898
559.236,0.035181571
559.510,0.03167282
559.785,0.031980186
560.059,0.032119435
560.334,0.029458115
560.608,0.027165507
560.883,0.028297169
561.157,0.028040385
561.432,0.027041248
561.706,0.026784186
561.981,0.027549997
562.255,0.026632934
562.529,0.02900115
562.804,0.027509952
563.078,0.030264213
563.352,0.030669352
563.627,0.030801867
563.901,0.030762135
564.175,0.032254042
564.449,0.031563762
564.723,0.030251185
564.998,0.029187697
565.272,0.029232438
565.546,0.028061986
565.820,0.030296101
566.094,0.029986924
566.368,0.032248696
566.642,0.030335141
566.916,0.029582009
567.190,0.028335194
567.464,0.02958267
567.738,0.028168104
568.011,0.029092434
568.285,0.028311419
568.559,0.028100357
568.833,0.026941471
569.107,0.026244858
569.380,0.024705282
569.654,0.023991649
569.928,0.023225149
570.201,0.024231667
570.475,0.024502151
570.749,0.024638546
571.022,0.02385771
571.296,0.023882366
571.569,0.021912146
571.843,0.022962314
572.116,0.024693547
572.390,0.025315786
572.663,0.02539185
572.937,0.026205241
573.210,0.026478191
573.483,0.026844715
573.757,0.026336865
574.030,0.024784823
574.303,0.024768022
574.576,0.023205393
574.850,0.021849299
575.123,0.02422243
575.396,0.022275009
575.669,0.019634393
575.942,0.020313742
576.215,0.020657908
576.489,0.020055577
576.762,0.019898163
577.035,0.018415798
577.308,0.018917337
577.581,0.01958455
577.854,0.017862314
578.126,0.019492156
578.399,0.020721375
578.672,0.01824357
578.945,0.018296243
579.218,0.020724161
579.491,0.021195273
579.764,0.02025637
580.036,0.019905768
580.309,0.01768801
580.582,0.019564906
580.854,0.0175386
581.127,0.018089039
581.400,0.019216492
581.672,0.019281691
581.945,0.017802769
582.217,0.018883476
582.490,0.019798034
582.762,0.018193727
583.035,0.015395393
583.307,0.01825881
583.580,0.018326939
583.852,0.020513054
584.125,0.019282322
584.397,0.020697416
584.669,0.017924465
584.941,0.019225347
585.214,0.017500943
585.486,0.020662701
585.758,0.018502539
586.030,0.019601026
586.302,0.020245069
586.575,0.022285031
586.847,0.020763157
587.119,0.02224536
587.391,0.021649179
587.663,0.022775079
587.935,0.023123057
588.207,0.026880926
588.479,0.025695546
588.751,0.02536596
589.023,0.023078135
589.295,0.02610411
589.567,0.024784111
589.838,0.025200962
590.110,0.023886555
590.382,0.023311489
590.654,0.023776341
590.925,0.022909511
591.197,0.02179495
591.469,0.022043934
591.740,0.019864982
592.012,0.02134791
592.284,0.024020226
592.555,0.025805711
592.827,0.021529238
593.098,0.021505791
593.370,0.019700536
593.641,0.022617952
593.913,0.022873331
594.184,0.022630131
594.456,0.022751186
594.727,0.023812609
594.998,0.021890335
595.270,0.021876188
595.541,0.020135977
595.812,0.019047364
596.083,0.018032465
596.355,0.021893531
596.626,0.022435854
596.897,0.022942306
597.168,0.01925809
597.439,0.019126748
597.710,0.016602768
597.981,0.016775057
598.252,0.013129692
598.523,0.012715548
598.794,0.014089113
599.065,0.013446929
599.336,0.012068577
599.607,0.013401037
599.878,0.012486279
600.149,0.012567922
600.420,0.012171572
600.691,0.014771707
600.961,0.014989265
601.232,0.017096693
601.503,0.017350612
601.773,0.019052914
602.044,0.018683962
602.315,0.018772799
602.585,0.01849208
602.856,0.020645295
603.127,0.018642694
603.397,0.018056015
603.668,0.016450183
603.938,0.01909996
604.209,0.019382067
604.479,0.0187955
604.750,0.017493623
605.020,0.015724179
605.290,0.015916416
605.561,0.01904561
605.831,0.018707242
606.101,0.018339788
606.371,0.014572853
606.642,0.013869421
606.912,0.013167347
607.182,0.013912673
607.452,0.012828848
607.722,0.010711818
607.992,0.008473586
608.262,0.009716357
608.533,0.011317409
608.803,0.012950993
609.073,0.010810635
609.343,0.009206936
609.612,0.007780183
609.882,0.010089372
610.152,0.009671279
610.422,0.010743543
610.692,0.007867985
610.962,0.006276805
611.232,0.006093627
611.501,0.006945276
611.771,0.006022431
612.041,0.004267929
612.310,0.002716341
612.580,0.001460237
612.850,0.001637683
613.119,0.001466732
613.389,-0.000372981
613.658,0.001774741
613.928,-0.001736658
614.197,0.001974692
614.467,0.00040335
614.736,0.002547434
615.006,0.002318404
615.275,0.001772239
615.545,0.00016118
615.814,-0.000670245
616.083,0.002183813
616.352,0.003364493
616.622,0.003389852
616.891,0.005202047
617.160,0.001939443
617.429,0.002065608
617.699,-0.001429788
617.968,0.001505765
618.237,-8.95736E-05
618.506,6.5163E-05
618.775,0.001940163
619.044,0.006087676
619.313,0.007129484
619.582,0.005976676
619.851,0.00488131
620.120,0.006219235
620.389,0.007247982
620.657,0.008735853
620.926,0.010806468
621.195,0.011934035
621.464,0.01252805
621.733,0.014911985
622.001,0.016182841
622.270,0.01705964
622.539,0.015780279
622.807,0.01601146
623.076,0.014699518
623.345,0.013031701
623.613,0.012239478
623.882,0.011180985
624.150,0.012364057
624.419,0.012716212
624.687,0.014184259
624.956,0.014573605
625.224,0.012540918
625.492,0.01305061
625.761,0.010501113
626.029,0.008634563
626.298,0.0074601
626.566,0.008606209
626.834,0.01025654
627.102,0.011608859
627.370,0.01069005
627.639,0.009128604
627.907,0.009280969
628.175,0.011121795
628.443,0.009721623
628.711,0.01033391
628.979,0.009944824
629.247,0.011878029
629.515,0.009782413
629.783,0.01102828
630.051,0.011420709
630.319,0.010246735
630.587,0.008833706
630.855,0.011393355
631.122,0.013721845
631.390,0.01412087
631.658,0.01133703
631.926,0.011560146
632.194,0.007743323
632.461,0.009050857
632.729,0.0077683
632.997,0.011140781
633.264,0.009551828
633.532,0.007788741
633.799,0.009066979
634.067,0.011661624
634.334,0.009721902
634.602,0.008802325
634.869,0.006798868
635.137,0.007051334
635.404,0.005432765
635.671,0.008813754
635.939,0.007080038
636.206,0.007889149
636.473,0.010054746
636.741,0.01137847
637.008,0.013434123
637.275,0.014896072
637.542,0.012227799
637.809,0.012496034
638.077,0.012957879
638.344,0.015912522
638.611,0.017807805
638.878,0.021372148
639.145,0.019443076
639.412,0.019973195
639.679,0.01952837
639.946,0.018817136
640.213,0.015110119
640.479,0.012032066
640.746,0.009485808
641.013,0.011278758
641.280,0.013421896
641.547,0.012130251
641.814,0.012747759
642.080,0.013067878
642.347,0.009952009
642.614,0.012045376
642.880,0.010329669
643.147,0.007088431
643.413,0.006650278
643.680,0.01233493
643.947,0.013987408
644.213,0.016774121
644.480,0.014400232
644.746,0.013453732
645.012,0.013179367
645.279,0.009987081
645.545,0.007984862
645.812,0.006330219
646.078,0.004912214
646.344,0.008450248
646.610,0.010528836
646.877,0.011160844
647.143,0.005695068
647.409,0.007169966
647.675,0.003314303
647.941,0.002189642
648.207,-0.000794397
648.473,0.000893127
648.740,0.002574214
649.006,0.001973223
649.272,0.005212786
649.537,0.006049552
649.803,0.004391622
650.069,0.005445163
650.335,0.003870654
650.601,0.006207105
650.867,0.004483656
651.133,0.00585798
651.398,0.008314047
651.664,0.012199463
651.930,0.011207075
652.196,0.010146087
652.461,0.008168592
652.727,0.00870839
652.992,0.007598807
653.258,0.009261922
653.524,0.007826731
653.789,0.006772269
654.055,0.007218687
654.320,0.008420122
654.586,0.010560337
654.851,0.011219101
655.116,0.008556732
655.382,0.007906999
655.647,0.008626845
655.912,0.011622938
656.178,0.009275152
656.443,0.011669452
656.708,0.009135165
656.973,0.010040446
657.239,0.010547241
657.504,0.010518964
657.769,0.007798512
658.034,0.008393207
658.299,0.007993644
658.564,0.010210164
658.829,0.010739718
659.094,0.013451929
659.359,0.011400086
659.624,0.009758798
659.889,0.007543993
660.154,0.007755601
660.418,0.008150861
660.683,0.008616118
660.948,0.008580031
661.213,0.011284258
661.477,0.006907155
661.742,0.0070499
662.007,0.003358586
662.271,0.004088157
662.536,0.00011027
662.801,-0.000267579
663.065,0.002125676
663.330,0.003383949
663.594,0.002242319
663.859,0.0011052
664.123,-0.001515157
664.388,-0.001012301
664.652,-0.003334115
664.916,-0.003714915
665.181,-0.003705887
665.445,0.000567892
665.709,-0.002896533
665.974,-0.000838674
666.238,0.001191299
666.502,0.000665328
666.766,0.000971378
667.030,0.005338602
667.294,0.004154719
667.559,0.008294917
667.823,0.006429585
668.087,0.006662958
668.351,0.009005793
668.615,0.006686949
668.879,0.003698569
669.143,0.006113017
669.406,0.005140834
669.670,0.006997787
669.934,0.00680747
670.198,0.006152835
670.462,0.003165728
670.726,0.005900909
670.989,0.001839505
671.253,0.005202073
671.517,0.007048944
671.780,0.005546153
672.044,0.008964351
672.307,0.00917105
672.571,0.01142604
672.835,0.011956754
673.098,0.008159589
673.362,0.009944142
673.625,0.009141535
673.888,0.011564895
674.152,0.010969296
674.415,0.012627561
674.679,0.010390463
674.942,0.011181166
675.205,0.011178196
675.468,0.010882315
675.732,0.010763533
675.995,0.008129475
676.258,0.009378677
676.521,0.013695579
676.784,0.011451071
677.047,0.012246554
677.310,0.010666706
677.573,0.009941836
677.836,0.010464843
678.099,0.010961616
678.362,0.008605125
678.625,0.010665292
678.888,0.006207286
679.151,0.007585168
679.414,0.008330181
679.677,0.007516196
679.939,0.00386341
680.202,0.005465046
680.465,0.006373084
680.728,0.004928993
680.990,0.003654951
681.253,0.002745167
681.516,0.00018309
681.778,0.000481523
682.041,-0.000882014
682.303,0.004578107
682.566,0.003581137
682.828,0.00104423
683.091,-0.002641519
683.353,-0.001607075
683.615,-0.004140102
683.878,-0.005506822
684.140,-0.006340276
684.402,-0.004792888
684.665,-0.006336565
684.927,-0.006039961
685.189,-0.007284996
685.451,-0.005518226
685.713,-0.008128848
685.976,-0.007485061
686.238,-0.004566527
686.500,3.29665E-05
686.762,-0.001725286
687.024,0.000970902
687.286,0.001868098
687.548,0.001370521
687.810,-0.004019549
688.072,0.000896343
688.333,0.00155975
688.595,0.002377735
688.857,5.02199E-05
689.119,0.001863985
689.381,0.001670733
689.642,0.001410004
689.904,-0.001591405
690.166,0.004356226
690.427,0.002804456
690.689,0.003086975
690.951,0.005378955
691.212,0.009620138
691.474,0.010322045
691.735,0.012568994
691.997,0.011610838
692.258,0.012653181
692.520,0.010512721
692.781,0.009566979
693.042,0.010206773
693.304,0.013172471
693.565,0.006828397
693.826,0.008547802
694.088,0.008603056
694.349,0.006456436
694.610,0.008342561
694.871,0.007880504
695.132,0.004659162
695.393,0.003401116
695.654,0.003825757
695.915,0.004240906
696.177,0.003984706
696.438,0.002006787
696.698,0.000337051
696.959,0.002132877
697.220,0.001913735
697.481,0.003069629
697.742,0.003421265
698.003,0.003355804
698.264,0.002039005
698.524,0.004606116
698.785,0.007119867
699.046,0.010439942
699.307,0.00977635
699.567,0.010869772
699.828,0.011480156
700.088,0.013283616
700.349,0.011807972
700.609,0.010095752
700.870,0.006223938
701.130,0.007654987
701.391,0.004795216
701.651,0.004071091
701.912,0.005670403
702.172,0.009459578
702.432,0.006682064
702.693,0.006330299
702.953,0.005414767
703.213,0.006480028
703.473,0.004027273
703.734,0.005964126
703.994,0.009874593
704.254,0.015353389
704.514,0.011870188
704.774,0.014220995
705.034,0.01121002
705.294,0.008760798
705.554,0.00173576
705.814,0.00213499
706.074,0.003761857
706.334,0.001520311
706.594,-0.001087225
706.854,0.000863641
707.113,-0.00105943
707.373,-0.003144765
707.633,-0.00747558
707.893,-0.006078588
708.152,-0.005549059
708.412,-0.004436805
708.672,-0.005269447
708.931,-0.000262729
709.191,0.000400516
709.451,0.00099465
709.710,0.003564125
709.970,0.005820021
710.229,0.001931943
710.488,0.004923591
710.748,0.002286888
711.007,0.004413044
711.267,0.004811262
711.526,0.002711076
711.785,0.004603286
712.044,0.008037912
712.304,0.005582914
712.563,0.00410294
712.822,0.003811699
713.081,0.002638597
713.340,0.000766718
713.599,0.00326678
713.858,0.000759041
714.117,0.0057941
714.377,0.003480224
714.635,0.005543117
714.894,0.00877939
715.153,0.011209311
715.412,0.010724931
715.671,0.011885244
715.930,0.009511639
716.189,0.009595365
716.447,0.011059094
716.706,0.015519845
716.965,0.01566675
717.224,0.016271811
717.482,0.012293928
717.741,0.015475926
717.999,0.013828683
718.258,0.012203567
718.517,0.009097034
718.775,0.007491636
719.034,0.009428207
719.292,0.013536066
719.550,0.01150284
719.809,0.010619538
720.067,0.006897508
720.326,0.007536466
720.584,0.007230552
720.842,0.010143998
721.100,0.00659913
721.359,0.010019734
721.617,0.007713416
721.875,0.010438408
722.133,0.012924844
722.391,0.013095563
722.649,0.010124101
722.907,0.014718822
723.165,0.012780476
723.423,0.015577544
723.681,0.01177127
723.939,0.014813162
724.197,0.011280718
724.455,0.014067352
724.713,0.011098053
724.970,0.011601858
725.228,0.008020448
725.486,0.007685861
725.744,0.006012776
726.001,0.007378082
726.259,0.003248347
726.517,0.00855084
726.774,0.00652222
727.032,0.012927242
727.289,0.011644697
727.547,0.014304587
727.804,0.011412467
728.062,0.012791683
728.319,0.010863815
728.577,0.013005998
728.834,0.011024082
729.091,0.010647016
729.349,0.008059346
729.606,0.008054481
729.863,0.004394842
730.120,0.004022134
730.378,-0.005053024
730.635,-0.005202072
730.892,-0.00389023
731.149,-0.000754228
731.406,-0.005356597
731.663,0.001491909
731.920,0.000543664
732.177,-0.002112434
732.434,-0.003594681
732.691,-0.000390103
732.948,-0.002139569
733.205,-0.00710068
733.461,-0.006823595
733.718,-0.000235927
733.975,-0.00329711
734.232,-0.003729517
734.488,-0.006146372
734.745,-0.000628912
735.002,-0.004649061
735.258,-0.00336985
735.515,-0.001656361
735.772,0.001612456
736.028,0.000720129
736.285,0.003545037
736.541,0.01139014
736.797,0.014230862
737.054,0.011471559
737.310,0.011189198
737.567,0.01191173
737.823,0.011212548
738.079,0.010981316
738.336,0.012828724
738.592,0.008308282
738.848,0.008783339
739.104,0.006179423
739.360,0.009697793
739.616,0.005475117
739.872,0.000178024
740.129,-0.002489242
740.385,0.001765191
740.641,0.005117899
740.897,0.002895456
741.152,0.003266484
741.408,0.003472781
741.664,0.000129003
741.920,0.004062746
742.176,0.004691718
742.432,0.006877573
742.687,0.003510567
742.943,0.004476068
743.199,0.006856728
743.455,0.006151726
743.710,-0.000701389
743.966,-0.001133877
744.221,-0.003546377
744.477,-0.00639861
744.732,-0.012018186
744.988,-0.01113059
745.243,-0.014805357
745.499,-0.010985465
745.754,-0.011224362
746.010,-0.008276987
746.265,-0.004768438
746.520,-0.000358568
746.776,-0.000628037
747.031,0.006275415
747.286,0.005577134
747.541,0.008664837
747.796,0.014686449
748.051,0.020866304
748.307,0.019776528
748.562,0.02501117
748.817,0.019492234
749.072,0.022431218
749.327,0.016037605
749.582,0.018651618
749.836,0.016131301
750.091,0.015213219
750.346,0.013407169
750.601,0.01442703
750.856,0.00825461
751.111,0.005119105
751.365,0.002692684
751.620,0.003844913
751.875,0.002056761
752.129,0.001554832
752.384,-0.005603982
752.639,0.001539782
752.893,-0.006340627
753.148,-0.004332085
753.402,-0.004430904
753.657,-0.002254732
753.911,-0.002866365
754.165,0.000763688
754.420,0.001835813
754.674,0.000934166
754.928,0.001132613
755.183,-0.000743387
755.437,-9.1828E-05
755.691,0.00300838
755.945,-0.000284397
756.200,0.00555452
756.454,-0.000354141
756.708,0.001035547
756.962,-0.003271627
757.216,0.00013553
757.470,0.00400708
757.724,0.004841731
757.978,0.002160948
758.232,0.002911605
758.486,0.000857656
758.740,0.002568774
758.993,-0.000111578
759.247,-0.000399819
759.501,-0.003272814
759.755,-0.001928571
760.008,0.001170075
760.262,0.008100642
760.516,0.006106098
760.769,0.005880661
761.023,0.002924451
761.276,0.006769559
761.530,0.008995537
761.783,0.013513504
762.037,0.011659978
762.290,0.018364998
762.544,0.018737165
762.797,0.018607991
763.050,0.01670919
763.304,0.014934286
763.557,0.01009912
763.810,0.01200941
764.063,0.007591795
764.317,0.010238926
764.570,0.005918159
764.823,0.00908678
765.076,0.005408613
765.329,0.010231401
765.582,0.007458528
765.835,0.006938727
766.088,0.010192156
766.341,0.013968221
766.594,0.011013304
766.847,0.010471007
767.100,0.000898911
767.353,0.00271053
767.605,0.001330708
767.858,0.001662656
768.111,-0.005353968
768.364,-0.002054164
768.616,-0.008947753
768.869,-0.009286219
769.121,-0.014270181
769.374,-0.018502726
769.627,-0.020660808
769.879,-0.01672924
770.132,-0.020406608
770.384,-0.014515811
770.636,-0.016680111
770.889,-0.011793217
771.141,-0.009909992
771.393,-0.00776793
771.646,-0.011038146
771.898,-0.009799536
772.150,-0.011892383
772.403,-0.003832879
772.655,0.002660282
772.907,0.006691757
773.159,0.001708885
773.411,0.003361086
773.663,0.001117491
773.915,0.002537683
774.167,2.47194E-05
774.419,0.00520203
774.671,-0.001193879
774.923,-0.00142667
775.175,-0.001437678
775.427,0.001748657
775.678,-0.003188199
775.930,-0.00104703
776.182,-0.008376515
776.434,-0.007431037
776.685,-0.00667358
776.937,-0.003581213
777.189,-0.005159945
777.440,-0.004307189
777.692,-0.011536894
777.943,-0.003102862
778.195,-0.004005309
778.446,0.001356153
778.698,-0.003357812
778.949,-0.002511568
779.200,-0.008594238
779.452,-0.003864272
779.703,0.002394867
779.954,-0.002191054
780.206,-0.003970275
780.457,-0.00162992
780.708,-0.002945124
780.959,0.00189489
781.210,0.001779145
781.461,0.006249162
781.712,-0.001249292
781.964,0.004146874
782.214,0.003571602
782.465,0.003550734
782.716,0.001760487
782.967,-0.001569769
783.218,0.006053612
783.469,0.008857357
783.720,0.006677572
783.971,0.00290725
784.221,0.005052233
784.472,0.005105999
784.723,0.002246749
784.973,0.008036758
785.224,0.004310309
785.475,0.008250334
785.725,0.009446974
785.976,0.012026823
786.226,0.010335779
786.477,0.00687297
786.727,0.010358985
786.978,0.007155097
787.228,0.004855594
787.478,-0.001747262
787.729,-0.000277359
787.979,-7.02483E-05
788.229,-0.00648433
788.479,-0.005804958
788.730,-0.009643181
788.980,-0.010082744
789.230,-0.015691969
789.480,-0.016396674
789.730,-0.018019931
789.980,-0.02002248
790.230,-0.013142515
790.480,-0.005600964
790.730,0.000188646
790.980,-0.004106869
791.230,-0.004027526
791.480,0.000548047
791.729,-0.000301627
791.979,-0.000781818
792.229,-0.002506762
792.479,0.004539037
792.728,0.001924759
792.978,0.005311405
793.228,0.00062687
793.477,-0.003687819
793.727,-0.007484404
793.976,-0.006675915
794.226,-0.007647768
794.475,-0.003184822
794.725,-0.004279808
794.974,-0.004801317
795.224,-0.008316527
795.473,-0.004531379
795.722,-0.007349634
795.971,-0.000786512
796.221,-0.004364064
796.470,-0.003704499
796.719,-0.004270449
796.968,-0.001381233
797.217,-0.008605283
797.466,-0.007787803
797.716,-0.013387878
797.965,-0.007308802
798.214,-0.00316694
798.463,0.004017542
798.711,0.000683787
798.960,0.005108179
799.209,0.000118932
799.458,0.005767289
799.707,0.00323749
799.956,0.010682671
800.204,0.006466499
800.453,0.0098686
800.702,0.010206632
800.950,0.01569098
801.199,0.007109038
801.448,0.007917583
801.696,0.004091447
801.945,0.003632747
802.193,0.001720422
802.442,0.005410833
802.690,0.001265474
802.938,0.004080617
803.187,-0.001967797
803.435,-0.000580195
803.683,-0.004611152
803.932,-0.006219622
804.180,-0.010036506
804.428,-0.0081788
804.676,-0.010082301
804.924,-0.009627827
805.173,-0.012038418
805.421,-0.012522077
805.669,-0.011917867
805.917,-0.010930113
806.165,-0.014456614
806.413,-0.008613444
806.661,-0.004985026
806.909,0.000871455
807.156,0.002259126
807.404,0.002323294
807.652,0.003288554
807.900,0.002891941
808.147,0.000637891
808.395,0.007626788
808.643,0.004197691
808.890,-0.001117401
809.138,-0.006254244
809.386,-8.83833E-05
809.633,-0.003513642
809.881,-0.009303633
810.128,-0.010667875
810.376,-0.009883248
810.623,-0.013635416
810.870,-0.01522657
811.118,-0.020392142
811.365,-0.007871329
811.612,-0.010414856
811.860,-0.00690606
812.107,-0.00467513
812.354,-0.000620967
812.601,-0.001332502
812.848,-0.001997347
813.095,0.000175748
813.342,0.000529454
813.589,0.00127348
813.836,0.001083349
814.083,0.003982173
814.330,0.006666879
814.577,-0.001533535
814.824,0.002072551
815.071,0.003346135
815.318,0.003995539
815.564,-0.001848015
815.811,0.000559458
816.058,0.001502785
816.305,0.001830799
816.551,0.005119888
816.798,0.003566226
817.044,0.008355684
817.291,0.010209029
817.537,0.010345432
817.784,0.004960891
818.030,-0.001339542
818.277,-0.003400096
818.523,-0.00223636
818.770,0.003787913
819.016,0.002185133
819.262,0.00522076
819.508,-0.000632609
819.755,-8.91908E-05
820.001,0.002978776
820.247,0.001751873
820.493,-0.007796331
820.739,-0.002368847
820.985,-0.000966302
821.231,0.00594423
821.477,0.008518931
821.723,0.010966224
821.969,0.010575336
822.215,0.011910909
822.461,0.007096575
822.707,0.01746472
822.953,0.011430873
823.198,0.003721271
823.444,0.008289921
823.690,0.013085005
823.936,0.011525952
824.181,0.019899896
824.427,0.01982628
824.672,0.020175074
824.918,0.016952947
825.163,0.019824428
825.409,0.018448068
825.654,0.023939905
825.900,0.016518982
826.145,0.016579006
826.391,0.02268094
826.636,0.016611458
826.881,0.014785904
827.126,0.010188573
827.372,0.005637704
827.617,0.001555165
827.862,-0.005412417
828.107,-0.006389004
828.352,-0.008309751
828.597,-0.004562394
828.842,-0.012038145
829.087,-0.004998079
829.332,-0.002706403
829.577,-0.002098254
829.822,-0.005340852
830.067,-0.00357318
830.312,-0.001939884
830.557,-0.003400064
830.801,-0.003932402
831.046,0.001358498
831.291,0.006584269
831.535,0.007146352
831.780,0.004584009
832.025,0.013198361
832.269,0.011158087
832.514,0.013916569
832.758,0.013885829
833.003,0.028070501
833.247,0.034534121
833.492,0.035336665
833.736,0.031696639
833.980,0.033878341
834.225,0.030097036
834.469,0.031722425
834.713,0.029170712
834.957,0.025183467
835.202,0.018295329
835.446,0.013400631
835.690,0.011945367
835.934,0.011158856
836.178,0.005225592
836.422,0.001111538
836.666,-0.001856108
836.910,0.006808062
837.154,0.007970235
837.398,0.013873155
837.642,0.01269682
837.885,0.016529054
838.129,0.009057999
838.373,0.011338757
838.617,0.012287962
838.860,0.01138777
839.104,0.008800577
839.348,0.0062079
839.591,0.003546704
839.835,0.006492777
840.078,0.000222066
840.322,-0.002980976
840.565,-0.01116336
840.809,-0.010966859
841.052,-0.011692171
841.295,-0.001900287
841.539,-0.005123524
841.782,0.002438502
842.025,-0.005579665
842.269,-0.002849733
842.512,-0.004814818
842.755,-0.003055063
842.998,-0.002252857
843.241,-0.004222115
843.484,-0.005360314
843.727,-0.000637911
843.970,-0.007658573
844.213,-0.00908739
844.456,-0.011944486
844.699,-0.008580616
844.942,-0.0196209
845.185,-0.01061889
845.428,-0.011315574
845.670,-0.005431266
845.913,-0.011087404
846.156,-0.013967855
846.398,-0.013477187
846.641,-0.011033758
846.884,-0.01865181
847.126,-0.01349021
847.369,-0.01091699
847.611,-0.0097889
847.854,-0.013301808
848.096,-0.005898172
848.339,-0.008196662
848.581,-0.008261846
848.823,-0.01175045
849.066,-0.008813222
849.308,-0.011797591
849.550,-0.008168639
849.792,-0.01727574
850.035,-0.008769193
850.277,-0.013427565
850.519,-0.012196426
850.761,-0.008454504
851.003,-0.006345994
851.245,-0.012917571
851.487,-0.016106913
851.729,-0.02268186
851.971,-0.016605241
852.213,-0.011467666
852.455,-0.007016392
852.696,-0.007381112
852.938,3.3788E-05
853.180,-0.00513747
853.422,0.002720303
853.663,-0.000218712
853.905,-0.002904745
854.147,-0.005803056
854.388,-0.001124138
854.630,0.000303501
854.871,0.00725042
855.113,-0.003294656
855.354,-0.007870229
855.596,-0.010515971
855.837,-0.0053679
856.078,-0.005442907
856.320,-0.001907951
856.561,-0.008229861
856.802,-0.013942168
857.043,-0.014827318
857.284,-0.006572786
857.526,-0.009600243
857.767,-0.007744717
858.008,-0.009020821
858.249,-0.001321254
858.490,0.000978446
858.731,0.006060481
858.972,0.003956588
859.213,0.002727579
859.454,-0.000821537
859.694,-0.000715495
859.935,0.002315846
860.176,9.03915E-05
860.417,-0.004361553
860.657,0.002535941
860.898,0.004114581
861.139,0.002587823
861.379,0.002949683
861.620,-0.000599773
861.861,-0.002164209
862.101,0.001081714
862.341,0.004303131
862.582,0.007579235
862.822,-0.000614261
863.063,0.003434507
863.303,0.004082276
863.543,0.004254466
863.784,-0.000954113
864.024,-0.002219669
864.264,-0.001158299
864.504,-0.005093595
864.744,-0.001683561
864.985,0.000659602
865.225,-0.006052419
865.465,-0.000380257
865.705,0.001266161
865.945,0.007128463
866.185,0.001791437
866.424,0.002624307
866.664,0.000664318
866.904,0.00552007
867.144,0.006709628
867.384,0.012807076
867.624,0.015895104
867.863,0.015920427
868.103,0.017193523
868.343,0.016554793
868.582,0.005707019
868.822,0.006308913
869.061,0.006182062
869.301,0.014346796
869.540,0.020702698
869.780,0.023466317
870.019,0.017844769
870.258,0.016976665
870.498,0.008595393
870.737,0.006272256
870.976,0.00904245
871.216,0.006771661
871.455,0.007888258
871.694,0.012231617
871.933,0.014596756
872.172,0.022494233
872.411,0.013169118
872.650,0.013626377
872.889,0.012294504
873.128,0.006875878
873.367,0.003684652
873.606,0.013608206
873.845,0.010260368
874.084,0.008750736
874.323,0.0057662
874.561,0.004527482
874.800,0.009841341
875.039,0.00305352
875.277,0.00015002
875.516,0.004851828
875.755,-0.003401117
875.993,-0.001280744
876.232,0.010091756
876.470,0.009862012
876.709,0.002541855
876.947,0.00334711
877.185,0.008168198
877.424,0.009050641
877.662,0.009844057
877.900,0.000827026
878.139,0.00346625
878.377,0.004951864
878.615,0.006238364
878.853,0.012452091
879.091,0.010466434
879.329,0.007152688
879.567,0.004885742
879.805,0.004780032
880.043,0.006991177
880.281,0.003285073
880.519,-0.001970698
880.757,0.004273822
880.995,0.008056541
881.233,0.00845164
881.471,0.004023879
881.708,0.00843866
881.946,0.008813296
882.184,0.009320805
882.421,0.009148417
882.659,0.021575744
882.896,0.022902482
883.134,0.024454109
883.372,0.02288648
883.609,0.034308255
883.846,0.030321597
884.084,0.031351593
884.321,0.035097654
884.559,0.036928804
884.796,0.032854832
885.033,0.031621116
885.270,0.028269736
885.508,0.026871311
885.745,0.018872346
885.982,0.023304795
886.219,0.022939525
886.456,0.028245451
886.693,0.021355442
886.930,0.015284721
887.167,0.018022712
887.404,0.01754455
887.641,0.01625221
887.878,0.016526756
888.114,0.010569698
888.351,0.015224909
888.588,0.014121014
888.825,0.017632107
889.061,0.01280742
889.298,0.013212391
889.535,-0.037376424
889.771,0.031109237
890.008,-0.025059492
890.244,0.041526344
890.481,0.005317675
890.717,0.022101723
