wavelength (nm),intensity ((uW/cm^2)/nm)
345.346,-0.041591083
345.638,0.05283843
345.929,-0.021183645
346.220,0.065652894
346.511,0.018677806
346.802,0.03549292
347.093,0.02872013
347.385,0.034082562
347.676,0.029962171
347.967,0.035357999
348.258,0.030985747
348.549,0.033190973
348.840,0.02960845
349.131,0.029796011
349.422,0.026815138
349.713,0.027997731
350.004,0.025081771
350.295,0.020792219
350.586,0.019533782
350.877,0.019747005
351.167,0.022543117
351.458,0.027839068
351.749,0.0256689
352.040,0.027638798
352.331,0.023459152
352.621,0.02643571
352.912,0.021091867
353.203,0.021622338
353.494,0.021958357
353.784,0.025689314
354.075,0.022895098
354.366,0.026431724
354.656,0.019663103
354.947,0.017517868
355.238,0.015957401
355.528,0.015817463
355.819,0.01337659
356.109,0.018256743
356.400,0.015315659
356.690,0.019489726
356.981,0.02195161
357.271,0.02469655
357.562,0.02115813
357.852,0.020591394
358.142,0.013803206
358.433,0.017931032
358.723,0.019871923
359.014,0.017988766
359.304,0.020948642
359.594,0.01985769
359.885,0.015608208
360.175,0.017405522
360.465,0.014844653
360.755,0.014510482
361.045,0.014349925
361.336,0.016564447
361.626,0.016369627
361.916,0.017313252
362.206,0.010575075
362.496,0.008180576
362.786,0.005372954
363.076,0.005133346
363.366,0.006949802
363.656,0.012161069
363.946,0.012470129
364.236,0.016159199
364.526,0.013661324
364.816,0.009832976
365.106,0.009799866
365.396,0.011444887
365.686,0.018114754
365.976,0.02161504
366.266,0.02315406
366.556,0.027676324
366.846,0.019335045
367.135,0.020144131
367.425,0.013779005
367.715,0.013579417
368.005,0.015536452
368.294,0.021088984
368.584,0.020732017
368.874,0.020230286
369.163,0.01414467
369.453,0.013348423
369.743,0.013980795
370.032,0.010621928
370.322,0.007682775
370.611,0.013177699
370.901,0.01571696
371.190,0.018225116
371.480,0.020075673
371.769,0.015544432
372.059,0.007532612
372.348,0.015547547
372.638,0.017946572
372.927,0.028678083
373.216,0.025539504
373.506,0.030521456
373.795,0.034901825
374.084,0.028902901
374.374,0.023547463
374.663,0.02673323
374.952,0.021891143
375.242,0.020047194
375.531,0.010702517
375.820,0.019044201
376.109,0.017145466
376.398,0.022465182
376.687,0.01716414
376.977,0.026463509
377.266,0.025176229
377.555,0.020520242
377.844,0.02897118
378.133,0.034521911
378.422,0.025899041
378.711,0.032066976
379.000,0.028935195
379.289,0.038911781
379.578,0.03540812
379.867,0.032223875
380.156,0.027951712
380.444,0.028159754
380.733,0.025563505
381.022,0.019414239
381.311,0.017921074
381.600,0.016239148
381.889,0.016866427
382.177,0.016703211
382.466,0.018155982
382.755,0.018523322
383.043,0.020932563
383.332,0.015007596
383.621,0.018510057
383.909,0.01601976
384.198,0.015727494
384.487,0.009190691
384.775,0.00874383
385.064,0.01710214
385.352,0.013505364
385.641,0.014164006
385.929,0.019455993
386.218,0.019608796
386.506,0.021529585
386.795,0.025179345
387.083,0.027496765
387.372,0.022017294
387.660,0.023088799
387.948,0.025229598
388.237,0.023534598
388.525,0.026364993
388.813,0.019389007
389.101,0.019621171
389.390,0.016863175
389.678,0.013719451
389.966,0.006568481
390.254,0.008631637
390.543,0.003143411
390.831,0.006271185
391.119,0.009040263
391.407,0.007722889
391.695,0.012229518
391.983,0.013870743
392.271,0.015588641
392.559,0.01806868
392.847,0.020359371
393.135,0.024007407
393.423,0.02075625
393.711,0.028709407
393.999,0.028635917
394.287,0.028890703
394.575,0.026415533
394.863,0.027443839
395.151,0.027344276
395.438,0.028544089
395.726,0.029915855
396.014,0.02966418
396.302,0.029126552
396.589,0.027658487
396.877,0.026441085
397.165,0.029726669
397.453,0.02287108
397.740,0.022497709
398.028,0.019245577
398.315,0.019865108
398.603,0.017799328
398.891,0.021508503
399.178,0.014523595
399.466,0.012280383
399.753,0.014736618
400.041,0.013622767
400.328,0.015521919
400.616,0.014393848
400.903,0.014959851
401.191,0.018995849
401.478,0.016519565
401.765,0.020105467
402.053,0.021704354
402.340,0.023179592
402.627,0.017221469
402.915,0.019512193
403.202,0.018501926
403.489,0.018571953
403.776,0.017211959
404.064,0.012268673
404.351,0.010877378
404.638,0.011988979
404.925,0.00945705
405.212,0.008232232
405.499,0.003972566
405.786,0.003909376
406.073,0.001425876
406.360,0.008544239
406.647,0.008309342
406.935,0.010873695
407.221,0.009407017
407.508,0.013039406
407.795,0.011881464
408.082,0.014121687
408.369,0.01131028
408.656,0.016636027
408.943,0.0163207
409.230,0.020668129
409.517,0.022512427
409.803,0.026060869
410.090,0.023757304
410.377,0.025607715
410.664,0.023604602
410.950,0.020921565
411.237,0.019566979
411.524,0.020716028
411.810,0.022311263
412.097,0.027304539
412.384,0.018875611
412.670,0.022633174
412.957,0.021231103
413.243,0.01810397
413.530,0.016381815
413.816,0.013711956
414.103,0.008022095
414.389,0.010872203
414.676,0.008973782
414.962,0.007061546
415.248,0.010898272
415.535,0.00798907
415.821,0.000369471
416.108,0.00682227
416.394,0.009433901
416.680,0.009640074
416.966,0.008738538
417.253,0.010761419
417.539,0.009013004
417.825,0.013948757
418.111,0.014351881
418.397,0.01877984
418.684,0.018918986
418.970,0.020615083
419.256,0.01706368
419.542,0.018867458
419.828,0.015743098
420.114,0.01381213
420.400,0.015268097
420.686,0.016736821
420.972,0.012854863
421.258,0.01769297
421.544,0.014816812
421.830,0.014147721
422.116,0.012872765
422.401,0.012594066
422.687,0.010549679
422.973,0.01509799
423.259,0.016453589
423.545,0.018109916
423.831,0.014119282
424.116,0.013291136
424.402,0.014017356
424.688,0.016118975
424.973,0.012805478
425.259,0.015137841
425.545,0.014430966
425.830,0.016259703
426.116,0.020811882
426.401,0.022201241
426.687,0.021106322
426.973,0.022293748
427.258,0.02013746
427.543,0.022177152
427.829,0.02077449
428.114,0.022177212
428.400,0.018406887
428.685,0.018800137
428.971,0.01736988
429.256,0.016999991
429.541,0.019595906
429.827,0.013353368
430.112,0.012784906
430.397,0.013915172
430.682,0.012377965
430.968,0.011049978
431.253,0.012839184
431.538,0.015013151
431.823,0.01156246
432.108,0.014286503
432.393,0.015334913
432.679,0.016851896
432.964,0.015624587
433.249,0.009507766
433.534,0.010394641
433.819,0.010805805
434.104,0.00825598
434.389,0.011145782
434.674,0.009821531
434.959,0.006486558
435.244,0.004534624
435.528,0.004183001
435.813,0.005244078
436.098,0.004835833
436.383,0.004345423
436.668,0.008109843
436.953,0.007190029
437.237,0.008055769
437.522,0.004609572
437.807,0.009195154
438.091,0.005251735
438.376,0.005759316
438.661,0.005806945
438.945,0.006480705
439.230,0.010184339
439.515,0.009147105
439.799,0.007060411
440.084,0.006254896
440.368,0.001563122
440.653,0.004983607
440.937,0.004492379
441.222,0.007629894
441.506,0.002763023
441.790,0.006093274
442.075,0.007445958
442.359,0.008497644
442.644,0.007381813
442.928,0.005363455
443.212,0.004537599
443.497,0.010848807
443.781,0.011844937
444.065,0.012255492
444.349,0.00886164
444.633,0.008088426
444.918,0.003704512
445.202,0.003320521
445.486,-0.001966681
445.770,-0.000687616
446.054,-0.001493796
446.338,0.000142813
446.622,-0.000122191
446.906,0.000184685
447.190,-0.005431846
447.474,-0.004969703
447.758,-0.00604034
448.042,-0.003628966
448.326,-0.000573854
448.610,0.002350358
448.894,0.004289488
449.178,0.008666562
449.461,0.006605205
449.745,0.008486115
450.029,0.005200081
450.313,0.004555869
450.596,0.001241415
450.880,0.002846411
451.164,-0.001936132
451.448,0.001361364
451.731,-0.001546072
452.015,-0.003475952
452.298,-0.005920028
452.582,-0.007987169
452.866,-0.007675914
453.149,-0.005454184
453.433,-0.00518923
453.716,-0.003639716
454.000,-0.004879375
454.283,-0.002872734
454.566,-0.004042009
454.850,-0.002411465
455.133,-0.002840196
455.417,-0.002232683
455.700,0.000804765
455.983,0.004038335
456.267,0.004869077
456.550,0.001821863
456.833,0.001771773
457.116,0.000161968
457.400,0.000165532
457.683,0.002547016
457.966,0.002455787
458.249,0.002349992
458.532,0.003549979
458.815,0.00380209
459.098,0.006641467
459.381,0.005804977
459.664,0.004422677
459.947,0.004261372
460.230,0.004445959
460.513,0.002939156
460.796,0.003585883
461.079,0.005768296
461.362,0.003182337
461.645,0.00451095
461.928,0.00571781
462.211,0.004676306
462.494,0.00397808
462.776,0.002860018
463.059,-1.42023E-05
463.342,0.000628001
463.625,0.000262617
463.907,-0.000658916
464.190,0.000352875
464.473,0.001099892
464.755,-0.002831834
465.038,0.001178825
465.320,-0.001014655
465.603,-0.000846902
465.886,0.000618399
466.168,0.001559108
466.451,0.002648541
466.733,0.003493262
467.015,0.003919656
467.298,0.00249818
467.580,0.005170292
467.863,0.004243741
468.145,0.003301088
468.427,0.005093853
468.710,0.002443927
468.992,0.005885821
469.274,0.005605418
469.557,0.00476405
469.839,0.003359393
470.121,0.002480296
470.403,0.003123199
470.685,0.004063256
470.967,0.006558796
471.250,0.00536261
471.532,0.004208683
471.814,0.004041295
472.096,0.002495766
472.378,0.001981146
472.660,0.000471915
472.942,-0.000258513
473.224,-0.000751765
473.506,0.001430635
473.788,0.001032773
474.070,0.00227671
474.351,0.00218882
474.633,0.002429104
474.915,0.001623608
475.197,0.003213086
475.479,0.003392539
475.760,0.006064079
476.042,0.008246147
476.324,0.008320028
476.606,0.007323624
476.887,0.006149447
477.169,0.004792703
477.451,0.006425088
477.732,0.007455548
478.014,0.006879055
478.295,0.006421155
478.577,0.008201482
478.858,0.007545067
479.140,0.009340427
479.421,0.007173855
479.703,0.005304631
479.984,0.00619518
480.265,0.007591412
480.547,0.00846509
480.828,0.009084671
481.110,0.006666052
481.391,0.004484423
481.672,0.003638261
481.953,0.002752703
482.235,0.00171415
482.516,0.001765867
482.797,-0.002027925
483.078,0.001772157
483.359,0.001910664
483.640,0.001244394
483.922,0.001324885
484.203,0.002389164
484.484,0.000717371
484.765,0.00329624
485.046,0.000374185
485.327,-0.000303175
485.608,-0.000551198
485.889,-0.000840155
486.170,0.001082971
486.450,0.004978368
486.731,0.00293419
487.012,0.001477371
487.293,0.002719973
487.574,0.001378178
487.855,0.002899701
488.135,0.002300019
488.416,-0.000130398
488.697,0.002174678
488.977,0.002416297
489.258,0.002894584
489.539,0.003729301
489.819,0.002560966
490.100,0.000862694
490.381,4.2455E-05
490.661,0.002403359
490.942,-0.001912822
491.222,-0.000316184
491.503,-0.002145479
491.783,-0.001285638
492.064,0.001351791
492.344,-0.00042077
492.624,0.00106076
492.905,-0.000400123
493.185,0.001768879
493.465,0.002420579
493.746,0.00172797
494.026,0.00116011
494.306,-0.000790154
494.586,0.001521776
494.867,-4.16681E-05
495.147,9.15368E-05
495.427,0.000759505
495.707,-0.003080176
495.987,0.001648509
496.267,0.002063939
496.547,0.002787657
496.827,-0.000590027
497.107,-0.001091907
497.387,-0.003094768
497.667,0.00016037
497.947,0.002204985
498.227,0.003487511
498.507,0.005760116
498.787,0.006203409
499.067,0.003118341
499.347,0.005365048
499.627,0.001612304
499.906,0.001491597
500.186,0.003541176
500.466,0.006461688
500.746,0.007139212
501.025,0.010580546
501.305,0.007759601
501.585,0.008194952
501.864,0.008046645
502.144,0.003691269
502.423,0.004328711
502.703,0.007686381
502.983,0.006130519
503.262,0.007880522
503.542,0.005906733
503.821,0.006596751
504.100,0.006212807
504.380,0.006169256
504.659,0.006463209
504.939,0.007800191
505.218,0.006498796
505.497,0.006747404
505.777,0.008986978
506.056,0.007236512
506.335,0.006567671
506.614,0.010163077
506.894,0.009921749
507.173,0.011435739
507.452,0.010239867
507.731,0.010011972
508.010,0.009743584
508.289,0.00880148
508.568,0.006394558
508.847,0.006631259
509.126,0.005406965
509.405,0.004761137
509.684,0.005599395
509.963,0.004122375
510.242,0.003462034
510.521,0.003093555
510.800,0.002811593
511.079,0.001369563
511.358,-5.49487E-05
511.637,0.000284466
511.915,-0.00058857
512.194,0.002387752
512.473,0.003078188
512.752,0.003254378
513.030,0.004954972
513.309,0.006202697
513.588,0.007336817
513.866,0.006452444
514.145,0.006282146
514.423,0.007373001
514.702,0.007231338
514.980,0.01013523
515.259,0.00889179
515.537,0.009649905
515.816,0.008422703
516.094,0.011598699
516.373,0.011857231
516.651,0.012566922
516.929,0.011383267
517.208,0.009900335
517.486,0.011460723
517.764,0.012233442
518.043,0.012358202
518.321,0.016220545
518.599,0.014091511
518.877,0.016755123
519.155,0.017774872
519.434,0.018644528
519.712,0.01475846
519.990,0.014595575
520.268,0.013644088
520.546,0.014359267
520.824,0.017004408
521.102,0.01454556
521.380,0.013561415
521.658,0.012684615
521.936,0.012025648
522.214,0.011020258
522.492,0.010141973
522.770,0.010684622
523.047,0.009266233
523.325,0.010089576
523.603,0.010913784
523.881,0.012460542
524.159,0.01047633
524.436,0.011124191
524.714,0.012607829
524.992,0.01303121
525.269,0.011575182
525.547,0.00990007
525.824,0.01107474
526.102,0.010858221
526.380,0.00955704
526.657,0.012612168
526.935,0.01185485
527.212,0.009800847
527.490,0.008997284
527.767,0.00961003
528.044,0.007352971
528.322,0.006226646
528.599,0.006690026
528.876,0.008478877
529.154,0.009740618
529.431,0.009820877
529.708,0.008719818
529.986,0.00919968
530.263,0.004442868
530.540,0.005973486
530.817,0.00558742
531.094,0.006329736
531.371,0.007355794
531.648,0.010642406
531.926,0.010622306
532.203,0.012840135
532.480,0.010668858
532.757,0.011378806
533.034,0.009991915
533.311,0.012229689
533.588,0.010708819
533.864,0.013802205
534.141,0.013403052
534.418,0.015715299
534.695,0.015052742
534.972,0.015499353
535.249,0.013374051
535.525,0.014774661
535.802,0.012865188
536.079,0.015506986
536.355,0.013693302
536.632,0.015418131
536.909,0.01240852
537.185,0.01417401
537.462,0.01286276
537.739,0.010531186
538.015,0.011130245
538.292,0.010334116
538.568,0.008642614
538.845,0.010729129
539.121,0.009053205
539.397,0.007815249
539.674,0.005592384
539.950,0.006821193
540.227,0.004513082
540.503,0.004852974
540.779,0.003611752
541.055,0.004468151
541.332,0.005863719
541.608,0.004020019
541.884,0.003662856
542.160,0.006066189
542.436,0.004809601
542.713,0.004985618
542.989,0.006401725
543.265,0.008517002
543.541,0.007897428
543.817,0.010302177
544.093,0.011555464
544.369,0.012443776
544.645,0.012001796
544.921,0.012730691
545.197,0.012755349
545.473,0.013858219
545.748,0.012558547
546.024,0.011484567
546.300,0.012770689
546.576,0.01233042
546.852,0.010217103
547.127,0.009478572
547.403,0.007879736
547.679,0.006959168
547.954,0.005277818
548.230,0.005463816
548.506,0.005481903
548.781,0.007397096
549.057,0.006660991
549.332,0.008762283
549.608,0.008835779
549.883,0.007554813
550.159,0.006704638
550.434,0.008788994
550.710,0.009919773
550.985,0.012663457
551.260,0.014373727
551.536,0.015295307
551.811,0.014539219
552.086,0.013003678
552.362,0.009387757
552.637,0.00965695
552.912,0.006756305
553.187,0.005092676
553.463,0.004244336
553.738,0.005734841
554.013,0.004416164
554.288,0.003652878
554.563,0.001837912
554.838,0.001616854
555.113,0.001708955
555.388,0.002105833
555.663,0.002003279
555.938,0.005891691
556.213,0.005641455
556.488,0.006914351
556.763,0.010293348
557.038,0.01261257
557.312,0.011250316
557.587,0.013347824
557.862,0.014474142
558.137,0.014143575
558.411,0.013910727
558.686,0.012727888
558.961,0.011853184
559.236,0.012327395
559.510,0.009505236
559.785,0.009881151
560.059,0.010842323
560.334,0.008940196
560.608,0.007090234
560.883,0.008611953
561.157,0.008501783
561.432,0.007599638
561.706,0.007460147
561.981,0.008129829
562.255,0.008100603
562.529,0.011159665
562.804,0.010898104
563.078,0.013380791
563.352,0.014278669
563.627,0.014348925
563.901,0.014243001
564.175,0.016175598
564.449,0.015645694
564.723,0.014830864
564.998,0.014338473
565.272,0.015110852
565.546,0.014664109
565.820,0.016853642
566.094,0.016651829
566.368,0.019077811
566.642,0.018284042
566.916,0.017903965
567.190,0.017448682
567.464,0.01947606
567.738,0.01823919
568.011,0.019545705
568.285,0.019177981
568.559,0.019424131
568.833,0.018791132
569.107,0.018461922
569.380,0.017923313
569.654,0.017537155
569.928,0.017482496
570.201,0.018723171
570.475,0.019433502
570.749,0.020263205
571.022,0.019888239
571.296,0.020553912
571.569,0.019230203
571.843,0.020622096
572.116,0.023159293
572.390,0.024423801
572.663,0.025245422
572.937,0.02643788
573.210,0.027966208
573.483,0.028559575
573.757,0.02891777
574.030,0.02829868
574.303,0.029009469
574.576,0.028427386
574.850,0.02807861
575.123,0.031749535
575.396,0.031112323
575.669,0.029468661
575.942,0.031506287
576.215,0.032868417
576.489,0.033396214
576.762,0.033875664
577.035,0.03415946
577.308,0.035963287
577.581,0.037838268
577.854,0.036982767
578.126,0.040043065
578.399,0.042496349
578.672,0.04124025
578.945,0.04314199
579.218,0.047172755
579.491,0.048475782
579.764,0.048965852
580.036,0.050101595
580.309,0.049802004
580.582,0.053067292
580.854,0.052942529
581.127,0.054774925
581.400,0.058453325
581.672,0.060266508
581.945,0.061025216
582.217,0.064528211
582.490,0.067023084
582.762,0.067665881
583.035,0.0677432
583.307,0.072947559
583.580,0.075851689
583.852,0.080605931
584.125,0.082290086
584.397,0.086006188
584.669,0.086549995
584.941,0.090179453
585.214,0.091191849
585.486,0.096733769
585.758,0.09683058
586.030,0.100837701
586.302,0.104925296
586.575,0.110125562
586.847,0.112605212
587.119,0.117186978
587.391,0.120261666
587.663,0.124379382
587.935,0.128207999
588.207,0.135486747
588.479,0.138284616
588.751,0.142118726
589.023,0.144604381
589.295,0.152109167
589.567,0.155644576
589.838,0.160534623
590.110,0.164288477
590.382,0.168410646
590.654,0.173809683
590.925,0.177048307
591.197,0.182088647
591.469,0.188439761
591.740,0.192297972
592.012,0.200043646
592.284,0.208940682
592.555,0.215934694
592.827,0.218569479
593.098,0.225608488
593.370,0.231720833
593.641,0.242450809
593.913,0.250100726
594.184,0.25808815
594.456,0.265901851
594.727,0.274463311
594.998,0.280565147
595.270,0.28860413
595.541,0.295644494
595.812,0.302680525
596.083,0.310808535
596.355,0.323308411
596.626,0.332608744
596.897,0.342284663
597.168,0.350093447
597.439,0.363035588
597.710,0.374169162
597.981,0.388797919
598.252,0.396514328
598.523,0.408439975
598.794,0.422274912
599.065,0.435065522
599.336,0.451615629
599.607,0.471428355
599.878,0.489458571
600.149,0.504554689
600.420,0.515516055
600.691,0.528899963
600.961,0.540977412
601.232,0.562177615
601.503,0.584673739
601.773,0.60981385
602.044,0.6313786
602.315,0.643588833
602.585,0.655927892
602.856,0.671101102
603.127,0.688468578
603.397,0.716204318
603.668,0.744214212
603.938,0.776907005
604.209,0.798931458
604.479,0.818143244
604.750,0.836745785
605.020,0.855391379
605.290,0.887333598
605.561,0.922246767
605.831,0.956188746
606.101,0.98583193
606.371,1.005357178
606.642,1.02893204
606.912,1.051842329
607.182,1.089198379
607.452,1.134008991
607.722,1.18094692
607.992,1.228170761
608.262,1.256816711
608.533,1.286286737
608.803,1.315351546
609.073,1.347642349
609.343,1.395688731
609.612,1.445215744
609.882,1.50000271
610.152,1.553170161
610.422,1.609815787
610.692,1.666284411
610.962,1.724731453
611.232,1.762975626
611.501,1.799781644
611.771,1.836703981
612.041,1.8769253
612.310,1.945076669
612.580,2.015318884
612.850,2.090367343
613.119,2.166521572
613.389,2.237443047
613.658,2.314875138
613.928,2.389583784
614.197,2.470400358
614.467,2.550028905
614.736,2.632586154
615.006,2.71420801
615.275,2.791588642
615.545,2.870176323
615.814,2.951355084
616.083,3.040419786
616.352,3.132509586
616.622,3.223490611
616.891,3.31908948
617.160,3.409998617
617.429,3.506520892
617.699,3.600801432
617.968,3.699431473
618.237,3.80970006
618.506,3.925220379
618.775,4.04634615
619.044,4.170101108
619.313,4.279627842
619.582,4.385548755
619.851,4.494464059
620.120,4.602275333
620.389,4.71305874
620.657,4.822482968
620.926,4.930315424
621.195,5.058532808
621.464,5.197931608
621.733,5.33713438
622.001,5.48251442
622.270,5.620894833
622.539,5.760079495
622.807,5.898573707
623.076,6.04571822
623.345,6.197426596
623.613,6.355122766
623.882,6.509984851
624.150,6.664576028
624.419,6.818192149
624.687,6.969586204
624.956,7.122176772
625.224,7.281169544
625.492,7.444359363
625.761,7.606836844
626.029,7.772663198
626.298,7.951093227
626.566,8.123299187
626.834,8.296849075
627.102,8.456940868
627.370,8.601006709
627.639,8.741341928
627.907,8.873198564
628.175,9.024019005
628.443,9.175092576
628.711,9.317038557
628.979,9.445660815
629.247,9.57840088
629.515,9.692152926
629.783,9.796024422
630.051,9.882725063
630.319,9.931019217
630.587,9.966492533
630.855,9.982386674
631.122,9.97707225
631.390,9.953440492
631.658,9.903426064
631.926,9.828845099
632.194,9.699517975
632.461,9.542481479
632.729,9.359028003
632.997,9.157782386
633.264,9.006958934
633.532,8.831484748
633.799,8.646532207
634.067,8.420379542
634.334,8.121548625
634.602,7.809984364
634.869,7.489160449
635.137,7.190166346
635.404,6.910095876
635.671,6.633026243
635.939,6.346161657
636.206,6.041304522
636.473,5.737169904
636.741,5.434338258
637.008,5.144424961
637.275,4.875576454
637.542,4.613149093
637.809,4.363118558
638.077,4.120323225
638.344,3.884302503
638.611,3.656363667
638.878,3.444843081
639.145,3.24172153
639.412,3.058123564
639.679,2.883896746
639.946,2.718413016
640.213,2.550299821
640.479,2.388875576
640.746,2.239129448
641.013,2.100526513
641.280,1.982553632
641.547,1.870282517
641.814,1.767208043
642.080,1.66794211
642.347,1.564155512
642.614,1.473041565
642.880,1.385530483
643.147,1.301072001
643.413,1.227520886
643.680,1.163702272
643.947,1.100149791
644.213,1.042080629
644.480,0.983482675
644.746,0.927732051
645.012,0.873383823
645.279,0.821720991
645.545,0.775830514
645.812,0.733636289
646.078,0.694586004
646.344,0.658080105
646.610,0.6243703
646.877,0.590637639
647.143,0.553352215
647.409,0.525880517
647.675,0.493960311
647.941,0.464906188
648.207,0.439392994
648.473,0.420308359
648.740,0.403480329
649.006,0.38322808
649.272,0.367103681
649.537,0.348642567
649.803,0.330132875
650.069,0.314120974
650.335,0.297545632
650.601,0.28593301
650.867,0.271155682
651.133,0.260051532
651.398,0.252215121
651.664,0.245082669
651.930,0.23513088
652.196,0.223440129
652.461,0.212181214
652.727,0.203749411
652.992,0.193872943
653.258,0.186805747
653.524,0.179075714
653.789,0.170693892
654.055,0.165277322
654.320,0.160643665
654.586,0.158172714
654.851,0.153283297
655.116,0.146169144
655.382,0.140343527
655.647,0.136766344
655.912,0.135304157
656.178,0.129718114
656.443,0.128114081
656.708,0.123182092
656.973,0.120951552
657.239,0.118801491
657.504,0.115196111
657.769,0.108812356
658.034,0.105715154
658.299,0.103231234
658.564,0.102567807
658.829,0.100189115
659.094,0.100162366
659.359,0.095695955
659.624,0.090578302
659.889,0.086583567
660.154,0.08426815
660.418,0.081763274
660.683,0.07895838
660.948,0.076211231
661.213,0.077014523
661.477,0.071088607
661.742,0.068850959
662.007,0.063515442
662.271,0.061846012
662.536,0.056087252
662.801,0.054083971
663.065,0.055363952
663.330,0.054680197
663.594,0.051647247
663.859,0.048903367
664.123,0.045341015
664.388,0.044685511
664.652,0.040894842
664.916,0.038404044
665.181,0.036947129
665.445,0.039483894
665.709,0.03577084
665.974,0.036883292
666.238,0.037769057
666.502,0.036214922
666.766,0.03548543
667.030,0.039018609
667.294,0.037438988
667.559,0.040536922
667.823,0.037839067
668.087,0.037138415
668.351,0.039925993
668.615,0.03707663
668.879,0.033664577
669.143,0.035105172
669.406,0.03338882
669.670,0.034765651
669.934,0.033814224
670.198,0.032637937
670.462,0.029222747
670.726,0.031078575
670.989,0.026645212
671.253,0.029486725
671.517,0.031177235
671.780,0.027664289
672.044,0.031075456
672.307,0.030701336
672.571,0.033093585
672.835,0.033102121
673.098,0.028809008
673.362,0.029963687
673.625,0.028918388
673.888,0.030511326
674.152,0.030030198
674.415,0.031782196
674.679,0.029653696
674.942,0.029847184
675.205,0.031038695
675.468,0.029477002
675.732,0.029157869
675.995,0.025634196
676.258,0.0268152
676.521,0.031266008
676.784,0.029377489
677.047,0.029855737
677.310,0.028661535
677.573,0.027243134
677.836,0.027291856
678.099,0.027139837
678.362,0.024507185
678.625,0.024871802
678.888,0.021273833
679.151,0.02227016
679.414,0.022686188
679.677,0.02159834
679.939,0.017766739
680.202,0.018452068
680.465,0.019110746
680.728,0.017198091
680.990,0.016067541
681.253,0.014459009
681.516,0.01182555
681.778,0.011906056
682.041,0.011085854
682.303,0.015641147
682.566,0.01515523
682.828,0.012555
683.091,0.008861744
683.353,0.00906334
683.615,0.006827868
683.878,0.005112465
684.140,0.004165882
684.402,0.005092196
684.665,0.003128328
684.927,0.003543127
685.189,0.002467024
685.451,0.004272098
685.713,0.002177514
685.976,0.001850573
686.238,0.004742597
686.500,0.008773245
686.762,0.007470602
687.024,0.009466076
687.286,0.010618067
687.548,0.009795647
687.810,0.004502475
688.072,0.009825955
688.333,0.010071001
688.595,0.010625028
688.857,0.008214842
689.119,0.00882898
689.381,0.009121961
689.642,0.008243356
689.904,0.004993746
690.166,0.010383332
690.427,0.009386938
690.689,0.009859624
690.951,0.01250435
691.212,0.016544696
691.474,0.016676418
691.735,0.018385834
691.997,0.017394322
692.258,0.017637996
692.520,0.016883763
692.781,0.015455769
693.042,0.016745396
693.304,0.019629233
693.565,0.013442436
693.826,0.014417846
694.088,0.013596695
694.349,0.011456786
694.610,0.013065321
694.871,0.01313389
695.132,0.010455673
695.393,0.008889756
695.654,0.01004102
695.915,0.009643055
696.177,0.009341013
696.438,0.007321024
696.698,0.005915874
696.959,0.007434719
697.220,0.007377131
697.481,0.008126601
697.742,0.007742954
698.003,0.007291835
698.264,0.006293001
698.524,0.008585703
698.785,0.0112834
699.046,0.01328214
699.307,0.013007489
699.567,0.014201171
699.828,0.014573269
700.088,0.0157626
700.349,0.014164619
700.609,0.012416768
700.870,0.009665557
701.130,0.011136622
701.391,0.008777442
701.651,0.007133331
701.912,0.008406759
702.172,0.011851573
702.432,0.010272788
702.693,0.009420547
702.953,0.007749738
703.213,0.008989991
703.473,0.007546624
703.734,0.009622183
703.994,0.013370297
704.254,0.018450661
704.514,0.015416168
704.774,0.017614112
705.034,0.014755515
705.294,0.012457462
705.554,0.005637622
705.814,0.00581582
706.074,0.0078318
706.334,0.006088432
706.594,0.003233891
706.854,0.004471984
707.113,0.002973902
707.373,0.001028627
707.633,-0.002787187
707.893,-0.001679093
708.152,-0.001404397
708.412,-9.78057E-05
708.672,-0.000634359
708.931,0.004185
709.191,0.00548644
709.451,0.005615904
709.710,0.007772549
709.970,0.009108206
710.229,0.006192537
710.488,0.008287365
710.748,0.005908164
711.007,0.007575327
711.267,0.007787297
711.526,0.005920721
711.785,0.008002007
712.044,0.011225699
712.304,0.009016234
712.563,0.006713098
712.822,0.006323375
713.081,0.005989825
713.340,0.005136211
713.599,0.006738124
713.858,0.004591494
714.117,0.00936939
714.377,0.007183893
714.635,0.009162317
714.894,0.012632718
715.153,0.014719978
715.412,0.014512447
715.671,0.015338727
715.930,0.012873198
716.189,0.012714503
716.447,0.013578518
716.706,0.017330896
716.965,0.017374685
717.224,0.01803942
717.482,0.013756112
717.741,0.016391841
717.999,0.015499064
718.258,0.013478622
718.517,0.009870042
718.775,0.00795134
719.034,0.010131224
719.292,0.014547736
719.550,0.013166318
719.809,0.0126968
720.067,0.009294822
720.326,0.010076887
720.584,0.009648971
720.842,0.01251543
721.100,0.009263453
721.359,0.011876709
721.617,0.009919492
721.875,0.01250519
722.133,0.014402923
722.391,0.014394918
722.649,0.011109305
722.907,0.015254356
723.165,0.013381164
723.423,0.015858593
723.681,0.012061974
723.939,0.01426904
724.197,0.010974173
724.455,0.013215129
724.713,0.010268709
724.970,0.010718456
725.228,0.007847188
725.486,0.00783203
725.744,0.006663714
726.001,0.009023213
726.259,0.004574853
726.517,0.009365894
726.774,0.007854091
727.032,0.014278282
727.289,0.013949034
727.547,0.01706868
727.804,0.014895207
728.062,0.016090187
728.319,0.014592045
728.577,0.016267567
728.834,0.014507346
729.091,0.013618439
729.349,0.01018696
729.606,0.010234643
729.863,0.00686315
730.120,0.005909569
730.378,-0.003238501
730.635,-0.003638031
730.892,-0.002343634
731.149,0.00018653
731.406,-0.004462643
731.663,0.001461295
731.920,0.001218382
732.177,-0.001962644
732.434,-0.003241175
732.691,-0.000157482
732.948,-0.001655975
733.205,-0.007212322
733.461,-0.00623596
733.718,-2.70231E-05
733.975,-0.002612251
734.232,-0.00352337
734.488,-0.005405527
734.745,-0.000107631
735.002,-0.003872451
735.258,-0.00398371
735.515,-0.00190013
735.772,0.001254962
736.028,0.001132089
736.285,0.004136417
736.541,0.01249771
736.797,0.014864985
737.054,0.012613156
737.310,0.011550842
737.567,0.012984562
737.823,0.011343078
738.079,0.011402239
738.336,0.013246285
738.592,0.010674189
738.848,0.011272303
739.104,0.008849803
739.360,0.010845012
739.616,0.006340906
739.872,0.000991528
740.129,-0.000826356
740.385,0.002808004
740.641,0.006625367
740.897,0.003548867
741.152,0.004972719
741.408,0.005502102
741.664,0.002045592
741.920,0.004508248
742.176,0.006009813
742.432,0.008015102
742.687,0.004897054
742.943,0.006544462
743.199,0.009391169
743.455,0.007942692
743.710,0.002419972
743.966,0.001555371
744.221,-4.76026E-05
744.477,-0.003185596
744.732,-0.008970951
744.988,-0.007637325
745.243,-0.010405578
745.499,-0.007574487
745.754,-0.00717907
746.010,-0.004507711
746.265,-0.001744079
746.520,0.001325252
746.776,0.001096942
747.031,0.0060013
747.286,0.006019105
747.541,0.008281825
747.796,0.014573619
748.051,0.020503594
748.307,0.018452588
748.562,0.023020411
748.817,0.018648567
749.072,0.019767844
749.327,0.013776998
749.582,0.016757647
749.836,0.015063428
750.091,0.014062386
750.346,0.013091203
750.601,0.012991667
750.856,0.006828559
751.111,0.002978527
751.365,-0.00015129
751.620,0.000695143
751.875,-0.00045394
752.129,-0.002414083
752.384,-0.00832511
752.639,-0.000894232
752.893,-0.007697484
753.148,-0.005352239
753.402,-0.004991252
753.657,-0.002694775
753.911,-0.002642875
754.165,0.00123335
754.420,0.003270324
754.674,0.004096755
754.928,0.005712703
755.183,0.00335703
755.437,0.005399462
755.691,0.008068347
755.945,0.00495196
756.200,0.009879682
756.454,0.00349384
756.708,0.004332869
756.962,0.000835817
757.216,0.004362258
757.470,0.008164539
757.724,0.008269068
757.978,0.006291867
758.232,0.006393219
758.486,0.005515805
758.740,0.006030037
758.993,0.004238597
759.247,0.003560697
759.501,0.001046006
759.755,0.001946118
760.008,0.00586523
760.262,0.010891071
760.516,0.008071872
760.769,0.007436708
761.023,0.005064064
761.276,0.007545634
761.530,0.00970019
761.783,0.011915571
762.037,0.010377176
762.290,0.015752958
762.544,0.016235222
762.797,0.015316884
763.050,0.013642566
763.304,0.010810927
763.557,0.007017637
763.810,0.009137628
764.063,0.005795265
764.317,0.008171798
764.570,0.003060788
764.823,0.005655504
765.076,0.004034952
765.329,0.008052052
765.582,0.00685795
765.835,0.006106527
766.088,0.009503859
766.341,0.012769667
766.594,0.010557559
766.847,0.00967287
767.100,0.001173775
767.353,0.001115935
767.605,0.000276821
767.858,0.001496669
768.111,-0.004328801
768.364,-0.00179475
768.616,-0.007196033
768.869,-0.008521672
769.121,-0.013357601
769.374,-0.017775712
769.627,-0.018330788
769.879,-0.014287607
770.132,-0.016979914
770.384,-0.011126274
770.636,-0.012489434
770.889,-0.008928641
771.141,-0.007514531
771.393,-0.005647325
771.646,-0.008448507
771.898,-0.007680603
772.150,-0.010203516
772.403,-0.002450341
772.655,0.003693875
772.907,0.006933992
773.159,0.002114799
773.411,0.002831529
773.663,0.000620345
773.915,0.002494133
774.167,0.000655792
774.419,0.004929768
774.671,-0.001820699
774.923,-0.002276541
775.175,-0.002458532
775.427,0.000702981
775.678,-0.003138338
775.930,-0.000747463
776.182,-0.007727984
776.434,-0.007934786
776.685,-0.006782717
776.937,-0.005305331
777.189,-0.006318275
777.440,-0.006342289
777.692,-0.012587324
777.943,-0.003718085
778.195,-0.004496664
778.446,-0.000187983
778.698,-0.005109978
778.949,-0.005156422
779.200,-0.010547063
779.452,-0.007046693
779.703,-0.00045581
779.954,-0.004758835
780.206,-0.00596069
780.457,-0.005848353
780.708,-0.007217361
780.959,-0.002310576
781.210,-0.002321551
781.461,0.001731139
781.712,-0.004631535
781.964,0.001274434
782.214,0.000570294
782.465,-0.000364574
782.716,-0.000928592
782.967,-0.003829863
783.218,0.002942088
783.469,0.005600703
783.720,0.005023651
783.971,0.00163736
784.221,0.002962673
784.472,0.001716524
784.723,-0.001816422
784.973,0.003355291
785.224,-0.000596528
785.475,0.002042967
785.725,0.003973456
785.976,0.005506122
786.226,0.003195414
786.477,-0.00011223
786.727,0.003810804
786.978,0.000120518
787.228,-0.002325343
787.478,-0.009030714
787.729,-0.006321859
787.979,-0.00507388
788.229,-0.011258806
788.479,-0.010645367
788.730,-0.012525214
788.980,-0.01402802
789.230,-0.018594848
789.480,-0.019584332
789.730,-0.019644728
789.980,-0.021980199
790.230,-0.014939391
790.480,-0.008127811
790.730,-0.000996912
790.980,-0.006882803
791.230,-0.007653441
791.480,-0.003271892
791.729,-0.003458917
791.979,-0.003951794
792.229,-0.005005296
792.479,0.001627918
792.728,0.000297389
792.978,0.00254232
793.228,-0.001215605
793.477,-0.005836687
793.727,-0.008485321
793.976,-0.009083651
794.226,-0.009443512
794.475,-0.00536947
794.725,-0.006454965
794.974,-0.007848592
795.224,-0.010572111
795.473,-0.008069103
795.722,-0.010657053
795.971,-0.005662885
796.221,-0.009530826
796.470,-0.009767328
796.719,-0.0098003
796.968,-0.006848393
797.217,-0.013014275
797.466,-0.011689374
797.716,-0.01719494
797.965,-0.010809297
798.214,-0.005852584
798.463,-0.000162969
798.711,-0.001252477
798.960,0.003893088
799.209,-7.92935E-05
799.458,0.005183823
799.707,0.003635043
799.956,0.011605053
800.204,0.006414499
800.453,0.00975403
800.702,0.010356168
800.950,0.015828565
801.199,0.008136331
801.448,0.007735887
801.696,0.005191708
801.945,0.003215878
802.193,0.000208702
802.442,0.002982804
802.690,0.000544856
802.938,0.002396632
803.187,-0.004125864
803.435,-0.00162066
803.683,-0.005836324
803.932,-0.008394722
804.180,-0.01192388
804.428,-0.011507695
804.676,-0.012111518
804.924,-0.012120379
805.173,-0.012590705
805.421,-0.013471369
805.669,-0.011247071
805.917,-0.011831166
806.165,-0.013861309
806.413,-0.007605657
806.661,-0.002768266
806.909,0.002542933
807.156,0.005866934
807.404,0.006839003
807.652,0.007697836
807.900,0.006199578
808.147,0.004312088
808.395,0.007978376
808.643,0.005422546
808.890,-0.000944108
809.138,-0.004521469
809.386,0.001585542
809.633,-0.001029397
809.881,-0.008197217
810.128,-0.008010364
810.376,-0.008816542
810.623,-0.012417133
810.870,-0.013898053
811.118,-0.017980865
811.365,-0.005584475
811.612,-0.006153165
811.860,-0.00251902
812.107,3.25776E-05
812.354,0.003173627
812.601,0.001801411
812.848,-7.24693E-06
813.095,0.001030931
813.342,5.44008E-06
813.589,0.001217245
813.836,0.000411924
814.083,0.004838867
814.330,0.007064389
814.577,-0.001889239
814.824,0.000720493
815.071,0.002378949
815.318,0.002768931
815.564,-0.002330897
815.811,0.000475901
816.058,0.001144805
816.305,0.002866074
816.551,0.00744018
816.798,0.005215943
817.044,0.010052591
817.291,0.010708764
817.537,0.0113767
817.784,0.00616469
818.030,0.000431936
818.277,-0.002799439
818.523,-0.00143091
818.770,0.004270938
819.016,0.001664686
819.262,0.004708851
819.508,-0.000272676
819.755,-0.000595258
820.001,0.003181128
820.247,0.001141816
820.493,-0.008071067
820.739,-0.004437727
820.985,-0.002957012
821.231,0.003979179
821.477,0.007929531
821.723,0.01039461
821.969,0.009775711
822.215,0.012049235
822.461,0.006852994
822.707,0.015883458
822.953,0.010036247
823.198,0.002495354
823.444,0.007161373
823.690,0.010546045
823.936,0.011545923
824.181,0.019246673
824.427,0.020040191
824.672,0.020466648
824.918,0.017508512
825.163,0.01929074
825.409,0.017442467
825.654,0.023011904
825.900,0.016688982
826.145,0.017141712
826.391,0.024285738
826.636,0.018522235
826.881,0.018148481
827.126,0.011296421
827.372,0.007166172
827.617,0.000933099
827.862,-0.007976676
828.107,-0.008539296
828.352,-0.01022417
828.597,-0.006455524
828.842,-0.013812452
829.087,-0.007943008
829.332,-0.00639333
829.577,-0.007987841
829.822,-0.011490165
830.067,-0.010408511
830.312,-0.007555263
830.557,-0.0088897
830.801,-0.008099741
831.046,-0.002417122
831.291,0.003126082
831.535,0.002639989
831.780,0.000288295
832.025,0.008485045
832.269,0.006914162
832.514,0.009403767
832.758,0.011050662
833.003,0.026353147
833.247,0.032763324
833.492,0.032700168
833.736,0.030603716
833.980,0.033152376
834.225,0.028725155
834.469,0.028995773
834.713,0.027794193
834.957,0.023395289
835.202,0.01805281
835.446,0.014382223
835.690,0.01409485
835.934,0.012499722
836.178,0.005838787
836.422,0.001222869
836.666,-0.000866187
836.910,0.005136941
837.154,0.005816554
837.398,0.01205373
837.642,0.011379835
837.885,0.014690103
838.129,0.007973691
838.373,0.008478983
838.617,0.007987174
838.860,0.005916843
839.104,0.00355246
839.348,0.001297783
839.591,0.000111009
839.835,0.002411966
840.078,-0.00179977
840.322,-0.005200576
840.565,-0.01258252
840.809,-0.014129689
841.052,-0.014480797
841.295,-0.005919553
841.539,-0.008809304
841.782,-0.001443372
842.025,-0.009177485
842.269,-0.006920769
842.512,-0.009125743
842.755,-0.007598203
842.998,-0.006692268
843.241,-0.009116251
843.484,-0.008991201
843.727,-0.005739409
843.970,-0.011403632
844.213,-0.012201934
844.456,-0.013453455
844.699,-0.009878103
844.942,-0.020633489
845.185,-0.011403613
845.428,-0.011141792
845.670,-0.005958087
845.913,-0.011718108
846.156,-0.01437983
846.398,-0.012868492
846.641,-0.012035846
846.884,-0.018626775
847.126,-0.013220406
847.369,-0.010222512
847.611,-0.01091997
847.854,-0.015775732
848.096,-0.009054784
848.339,-0.011121244
848.581,-0.012228035
848.823,-0.013988715
849.066,-0.011095295
849.308,-0.014225455
849.550,-0.012268977
849.792,-0.021197435
850.035,-0.012671746
850.277,-0.016444275
850.519,-0.016151641
850.761,-0.012800913
851.003,-0.009379333
851.245,-0.01523757
851.487,-0.017744695
851.729,-0.023507395
851.971,-0.018667511
852.213,-0.014204434
852.455,-0.01001858
852.696,-0.010001082
852.938,-0.002370698
853.180,-0.007125598
853.422,-0.000727186
853.663,-0.003022941
853.905,-0.005480618
854.147,-0.008834283
854.388,-0.003713388
854.630,-0.002678264
854.871,0.002593617
855.113,-0.007601829
855.354,-0.01234574
855.596,-0.013467676
855.837,-0.008291658
856.078,-0.008852685
856.320,-0.005184033
856.561,-0.011720779
856.802,-0.018302194
857.043,-0.018117361
857.284,-0.00950798
857.526,-0.012534436
857.767,-0.012413832
858.008,-0.012103218
858.249,-0.006356871
858.490,-0.004021716
858.731,-0.000637017
858.972,-0.002838263
859.213,-0.003490444
859.454,-0.006813106
859.694,-0.007089452
859.935,-0.003237217
860.176,-0.006100006
860.417,-0.01081617
860.657,-0.004790113
860.898,-0.001217364
861.139,-0.003429183
861.379,-0.001494316
861.620,-0.004499187
861.861,-0.005256694
862.101,-0.003301714
862.341,0.000567034
862.582,0.002625889
862.822,-0.004195679
863.063,-0.000211681
863.303,0.000964163
863.543,0.001819813
863.784,-0.003170406
864.024,-0.006824349
864.264,-0.006150053
864.504,-0.010519145
864.744,-0.007978906
864.985,-0.006338159
865.225,-0.01195054
865.465,-0.006809717
865.705,-0.004327344
865.945,0.001298951
866.185,-0.004987307
866.424,-0.004150183
866.664,-0.006415321
866.904,-0.00184178
867.144,0.001245448
867.384,0.007908812
867.624,0.01082888
867.863,0.011303571
868.103,0.013286227
868.343,0.012466498
868.582,0.001467073
868.822,0.000844928
869.061,5.25793E-05
869.301,0.007732345
869.540,0.014734337
869.780,0.018192432
870.019,0.013995009
870.258,0.011936362
870.498,0.004267933
870.737,0.002337651
870.976,0.006421351
871.216,0.00419549
871.455,0.0050595
871.694,0.00854862
871.933,0.012146707
872.172,0.020400765
872.411,0.012492471
872.650,0.011865695
872.889,0.010151585
873.128,0.003037567
873.367,0.000790822
873.606,0.010308395
873.845,0.007456316
874.084,0.004748427
874.323,0.00191971
874.561,0.00112216
874.800,0.007022216
875.039,0.000635777
875.277,-0.002245026
875.516,0.000989411
875.755,-0.007473644
875.993,-0.005695525
876.232,0.006465911
876.470,0.004599925
876.709,-0.00271612
876.947,-0.002486587
877.185,0.002914573
877.424,0.002701811
877.662,0.003825311
877.900,-0.00531937
878.139,-0.003228949
878.377,-0.00326262
878.615,-0.000378834
878.853,0.005213481
879.091,0.004396151
879.329,0.001193568
879.567,-0.000504633
879.805,-0.001147904
880.043,0.001120475
880.281,-0.002656612
880.519,-0.00758883
880.757,-0.002607731
880.995,0.002222015
881.233,0.00222038
881.471,0.000200767
881.708,0.002992077
881.946,0.00417272
882.184,0.002326754
882.421,0.001552594
882.659,0.014053322
882.896,0.016977355
883.134,0.017913993
883.372,0.01594499
883.609,0.026521996
883.846,0.024002959
884.084,0.023918641
884.321,0.027603972
884.559,0.028128178
884.796,0.025803778
885.033,0.024052239
885.270,0.021880807
885.508,0.021141989
885.745,0.013614066
885.982,0.016554112
886.219,0.017463277
886.456,0.022321404
886.693,0.016228312
886.930,0.009771754
887.167,0.013666648
887.404,0.012573679
887.641,0.011939813
887.878,0.011103521
888.114,0.005556727
888.351,0.01026391
888.588,0.009719703
888.825,0.012756777
889.061,0.008304445
889.298,0.007731152
889.535,-0.043978651
889.771,0.026061568
890.008,-0.015899815
890.244,0.026759013
890.481,0.003631585
890.717,0.011050857
