wavelength (nm),intensity ((uW/cm^2)/nm)
345.346,-0.031122094
345.638,0.046039434
345.929,-0.01529244
346.220,0.07311508
346.511,0.036764088
346.802,0.035313662
347.093,0.035498554
347.385,0.040737215
347.676,0.036600299
347.967,0.042413407
348.258,0.037468843
348.549,0.038902201
348.840,0.036604085
349.131,0.036052195
349.422,0.032988417
349.713,0.033927476
350.004,0.030485231
350.295,0.027619373
350.586,0.026474451
350.877,0.028224948
351.167,0.031287402
351.458,0.038465713
351.749,0.03636665
352.040,0.039341945
352.331,0.035214439
352.621,0.037684345
352.912,0.032915687
353.203,0.033209984
353.494,0.034455125
353.784,0.038258229
354.075,0.03417446
354.366,0.037309639
354.656,0.029700552
354.947,0.028160677
355.238,0.02561693
355.528,0.026380412
355.819,0.023303371
356.109,0.027924924
356.400,0.024237703
356.690,0.028532154
356.981,0.031327265
357.271,0.033502319
357.562,0.030679086
357.852,0.031382672
358.142,0.025810917
358.433,0.030839568
358.723,0.03258803
359.014,0.031149529
359.304,0.03268912
359.594,0.032146977
359.885,0.029486967
360.175,0.032420568
360.465,0.029522749
360.755,0.03016417
361.045,0.030936296
361.336,0.032676875
361.626,0.03201563
361.916,0.033048159
362.206,0.025705636
362.496,0.023456766
362.786,0.020989938
363.076,0.02146368
363.366,0.022535089
363.656,0.027193026
363.946,0.028766658
364.236,0.032966089
364.526,0.030163184
364.816,0.026444101
365.106,0.027196086
365.396,0.029159468
365.686,0.036264029
365.976,0.039918952
366.266,0.040980801
366.556,0.045040143
366.846,0.037437025
367.135,0.039120907
367.425,0.031770744
367.715,0.030909519
368.005,0.032764546
368.294,0.037573546
368.584,0.03667731
368.874,0.03580909
369.163,0.029648459
369.453,0.027308224
369.743,0.028603169
370.032,0.026025577
370.322,0.023658914
370.611,0.028886227
370.901,0.031330787
371.190,0.035465619
371.480,0.037472452
371.769,0.033642771
372.059,0.025877763
372.348,0.034464147
372.638,0.037408877
372.927,0.047886887
373.216,0.044778044
373.506,0.049629925
373.795,0.052008271
374.084,0.046891406
374.374,0.040392276
374.663,0.045128171
374.952,0.038842979
375.242,0.036313758
375.531,0.02688406
375.820,0.034121743
376.109,0.030935773
376.398,0.034931246
376.687,0.027731508
376.977,0.037548099
377.266,0.036469738
377.555,0.033012989
377.844,0.040055285
378.133,0.046129105
378.422,0.035482653
378.711,0.042955283
379.000,0.039244931
379.289,0.048839391
379.578,0.046977909
379.867,0.045376136
380.156,0.041870824
380.444,0.044852444
380.733,0.041570141
381.022,0.035782752
381.311,0.034658526
381.600,0.034065941
381.889,0.034982523
382.177,0.035305708
382.466,0.035942533
382.755,0.0374132
383.043,0.039714576
383.332,0.03503871
383.621,0.037220942
383.909,0.03572827
384.198,0.033948159
384.487,0.028914695
384.775,0.027832607
385.064,0.03618195
385.352,0.032773061
385.641,0.03355059
385.929,0.03895698
386.218,0.039513387
386.506,0.042035335
386.795,0.045298877
387.083,0.046160013
387.372,0.041323475
387.660,0.041547885
387.948,0.044194978
388.237,0.04152694
388.525,0.044370712
388.813,0.036928442
389.101,0.036962806
389.390,0.033646957
389.678,0.031450193
389.966,0.023794768
390.254,0.025450633
390.543,0.019946575
390.831,0.022719648
391.119,0.025112456
391.407,0.023241254
391.695,0.027188622
391.983,0.029342473
392.271,0.031328265
392.559,0.033941952
392.847,0.036392985
393.135,0.040145226
393.423,0.035899263
393.711,0.044297718
393.999,0.043681994
394.287,0.043617903
394.575,0.04085058
394.863,0.041998242
395.151,0.042236197
395.438,0.044250237
395.726,0.045446807
396.014,0.044105537
396.302,0.043212866
396.589,0.041523512
396.877,0.040600546
397.165,0.043352223
397.453,0.036749615
397.740,0.037035899
398.028,0.034434028
398.315,0.035516578
398.603,0.033087551
398.891,0.037585679
399.178,0.030287253
399.466,0.028021732
399.753,0.030955174
400.041,0.030402578
400.328,0.031812036
400.616,0.030584084
400.903,0.031900646
401.191,0.035998497
401.478,0.032456436
401.765,0.036384593
402.053,0.037545935
402.340,0.03908539
402.627,0.03242615
402.915,0.034398235
403.202,0.03250551
403.489,0.033375057
403.776,0.032792467
404.064,0.028691444
404.351,0.027205694
404.638,0.028450304
404.925,0.025324578
405.212,0.025152527
405.499,0.02024698
405.786,0.020619748
406.073,0.018595596
406.360,0.026318261
406.647,0.026768431
406.935,0.030612359
407.221,0.028349778
407.508,0.031655869
407.795,0.03073566
408.082,0.033493016
408.369,0.030304103
408.656,0.035821882
408.943,0.034882876
409.230,0.039831192
409.517,0.041822395
409.803,0.046102658
410.090,0.04333118
410.377,0.045573692
410.664,0.043732411
410.950,0.04204336
411.237,0.03984342
411.524,0.041279666
411.810,0.041662564
412.097,0.04750284
412.384,0.039507418
412.670,0.043455574
412.957,0.041877522
413.243,0.03920234
413.530,0.036837224
413.816,0.03475426
414.103,0.028567959
414.389,0.031520134
414.676,0.029288004
414.962,0.028514651
415.248,0.031811908
415.535,0.030723927
415.821,0.023316187
416.108,0.029584127
416.394,0.032268366
416.680,0.033148806
416.966,0.032322626
417.253,0.034990132
417.539,0.033553207
417.825,0.039159194
418.111,0.039126753
418.397,0.044149528
418.684,0.044714164
418.970,0.046516765
419.256,0.043315101
419.542,0.044844795
419.828,0.041779329
420.114,0.040828915
420.400,0.041645844
420.686,0.04356212
420.972,0.040150258
421.258,0.04544416
421.544,0.041733985
421.830,0.041621711
422.116,0.040101356
422.401,0.039011717
422.687,0.037106442
422.973,0.041034081
423.259,0.042438422
423.545,0.044819852
423.831,0.039964817
424.116,0.039967106
424.402,0.040131206
424.688,0.041617349
424.973,0.038287698
425.259,0.042307637
425.545,0.041590955
425.830,0.044145852
426.116,0.049371456
426.401,0.050398459
426.687,0.049968222
426.973,0.051495921
427.258,0.048813898
427.543,0.051625787
427.829,0.049934533
428.114,0.051579402
428.400,0.047959109
428.685,0.048636207
428.971,0.046049116
429.256,0.045821614
429.541,0.047532974
429.827,0.04097634
430.112,0.040513392
430.397,0.04055328
430.682,0.038971035
430.968,0.037813626
431.253,0.038947032
431.538,0.041087776
431.823,0.036592664
432.108,0.038918683
432.393,0.03906828
432.679,0.040541196
432.964,0.038149616
433.249,0.032011514
433.534,0.031638996
433.819,0.031735366
434.104,0.02882251
434.389,0.031028119
434.674,0.029071494
434.959,0.025529565
435.244,0.023168937
435.528,0.023175769
435.813,0.02353597
436.098,0.02307629
436.383,0.021515117
436.668,0.025394001
436.953,0.023699958
437.237,0.025200199
437.522,0.021558537
437.807,0.026285511
438.091,0.021573831
438.376,0.021655106
438.661,0.021126
438.945,0.021012495
439.230,0.024544873
439.515,0.024246022
439.799,0.021613816
440.084,0.02157158
440.368,0.016959821
440.653,0.021316639
440.937,0.020469846
441.222,0.023131006
441.506,0.018683252
441.790,0.022323316
442.075,0.023772086
442.359,0.025034442
442.644,0.024494797
442.928,0.022172336
443.212,0.021320063
443.497,0.027754782
443.781,0.028800892
444.065,0.028982819
444.349,0.025306977
444.633,0.025278404
444.918,0.021153139
445.202,0.020570512
445.486,0.015646343
445.770,0.017467838
446.054,0.01639156
446.338,0.018365488
446.622,0.018986595
446.906,0.018812586
447.190,0.01370266
447.474,0.014073661
447.758,0.013446787
448.042,0.01585159
448.326,0.018579766
448.610,0.022092834
448.894,0.023143512
449.178,0.027239397
449.461,0.02466881
449.745,0.026909105
450.029,0.023691477
450.313,0.022789683
450.596,0.020795851
450.880,0.021599039
451.164,0.01718053
451.448,0.020242482
451.731,0.017279866
452.015,0.015521286
452.298,0.012857247
452.582,0.011796026
452.866,0.012404878
453.149,0.015040422
453.433,0.015653495
453.716,0.017128889
454.000,0.016239715
454.283,0.018048083
454.566,0.01756479
454.850,0.019784683
455.133,0.019938301
455.417,0.020865587
455.700,0.023914689
455.983,0.027289677
456.267,0.027658328
456.550,0.025085225
456.833,0.025331473
457.116,0.023934909
457.400,0.024274514
457.683,0.026578402
457.966,0.02663595
458.249,0.026459048
458.532,0.027320177
458.815,0.028008686
459.098,0.031522882
459.381,0.031084735
459.664,0.030626339
459.947,0.031738865
460.230,0.032263056
460.513,0.031259686
460.796,0.032564726
461.079,0.035461589
461.362,0.033663497
461.645,0.035646999
461.928,0.038071705
462.211,0.038479807
462.494,0.038811075
462.776,0.038753703
463.059,0.036886675
463.342,0.038522178
463.625,0.038722604
463.907,0.039054082
464.190,0.040813417
464.473,0.042222787
464.755,0.039423151
465.038,0.044515824
465.320,0.04346101
465.603,0.044945435
465.886,0.047466295
466.168,0.049773091
466.451,0.051857705
466.733,0.054195685
467.015,0.055835525
467.298,0.056635775
467.580,0.061071716
467.863,0.061937173
468.145,0.063042969
468.427,0.066957563
468.710,0.066356675
468.992,0.072008684
469.274,0.073891022
469.557,0.075219933
469.839,0.075753725
470.121,0.077169991
470.403,0.08064467
470.685,0.083957857
470.967,0.088773464
471.250,0.090272562
471.532,0.092523696
471.814,0.095767513
472.096,0.097403398
472.378,0.100405846
472.660,0.102016516
472.942,0.104811181
473.224,0.107933851
473.506,0.113857228
473.788,0.117956924
474.070,0.123198019
474.351,0.127079804
474.633,0.132113779
474.915,0.135830332
475.197,0.14233922
475.479,0.147646889
475.760,0.155424439
476.042,0.162672341
476.324,0.168230329
476.606,0.172472627
476.887,0.176875077
477.169,0.181308582
477.451,0.188981427
477.732,0.195959237
478.014,0.202609024
478.295,0.209062417
478.577,0.218283519
478.858,0.225210965
479.140,0.234502147
479.421,0.239624704
479.703,0.245983321
479.984,0.255136345
480.265,0.265062316
480.547,0.275179896
480.828,0.285747205
481.110,0.292388404
481.391,0.300353122
481.672,0.309010487
481.953,0.318158574
482.235,0.328279013
482.516,0.339835126
482.797,0.347388241
483.078,0.363561627
483.359,0.3759205
483.640,0.387415953
483.922,0.401161029
484.203,0.416342224
484.484,0.429279774
484.765,0.446857161
485.046,0.459337923
485.327,0.474702543
485.608,0.490177696
485.889,0.505732842
486.170,0.523851367
486.450,0.545096973
486.731,0.560410568
487.012,0.576926368
487.293,0.598524855
487.574,0.616372846
487.855,0.63853528
488.135,0.659477687
488.416,0.678806887
488.697,0.703434311
488.977,0.72716349
489.258,0.751272423
489.539,0.776596068
489.819,0.800346992
490.100,0.824359992
490.381,0.849314671
490.661,0.878459601
490.942,0.901362177
491.222,0.931827937
491.503,0.958054187
491.783,0.988088992
492.064,1.021405303
492.344,1.05263861
492.624,1.087184675
492.905,1.12079749
493.185,1.158169084
493.465,1.196230083
493.746,1.232791535
494.026,1.270069634
494.306,1.307103562
494.586,1.34926753
494.867,1.388203697
495.147,1.43179515
495.427,1.477481045
495.707,1.518028395
495.987,1.56916681
496.267,1.616280032
496.547,1.664452152
496.827,1.712578377
497.107,1.763200535
497.387,1.81385142
497.667,1.87008992
497.947,1.927054892
498.227,1.98346309
498.507,2.044850435
498.787,2.104011815
499.067,2.160833803
499.347,2.223769746
499.627,2.279740452
499.906,2.341659916
500.186,2.409084361
500.466,2.4769593
500.746,2.543876344
501.025,2.615715574
501.305,2.684043575
501.585,2.753711183
501.864,2.82605645
502.144,2.89287072
502.423,2.968855682
502.703,3.044841367
502.983,3.117690317
503.262,3.198561533
503.542,3.27695776
503.821,3.361464925
504.100,3.443501842
504.380,3.523477334
504.659,3.60341948
504.939,3.686159111
505.218,3.769515482
505.497,3.854294189
505.777,3.940435005
506.056,4.023361009
506.335,4.106545675
506.614,4.193112618
506.894,4.277875629
507.173,4.37059937
507.452,4.460085069
507.731,4.554483187
508.010,4.649570584
508.289,4.731223504
508.568,4.811459641
508.847,4.892727697
509.126,4.978606842
509.405,5.070155991
509.684,5.160840159
509.963,5.247799156
510.242,5.33147138
510.521,5.413258083
510.800,5.491153523
511.079,5.570481191
511.358,5.650012096
511.637,5.728964107
511.915,5.811311798
512.194,5.888346369
512.473,5.965982321
512.752,6.040908398
513.030,6.112474318
513.309,6.172614752
513.588,6.229154718
513.866,6.280397281
514.145,6.3326685
514.423,6.395029839
514.702,6.449607783
514.980,6.506059528
515.259,6.554773448
515.537,6.601326298
515.816,6.646079897
516.094,6.690726872
516.373,6.717772622
516.651,6.746414563
516.929,6.769827092
517.208,6.791737567
517.486,6.812784456
517.764,6.831376079
518.043,6.847608349
518.321,6.865773607
518.599,6.874360916
518.877,6.885947563
519.155,6.89107382
519.434,6.892416534
519.712,6.883864198
519.990,6.879215976
520.268,6.859100487
520.546,6.834692548
520.824,6.808980549
521.102,6.779221097
521.380,6.751686937
521.658,6.72286991
521.936,6.694294891
522.214,6.658385802
522.492,6.617523444
522.770,6.578631226
523.047,6.538005607
523.325,6.503520363
523.603,6.468092205
523.881,6.427557498
524.159,6.381636801
524.436,6.330830827
524.714,6.28288678
524.992,6.231762048
525.269,6.174462839
525.547,6.113922573
525.824,6.05533016
526.102,6.000688942
526.380,5.947676401
526.657,5.897434269
526.935,5.843601343
527.212,5.777792809
527.490,5.71225142
527.767,5.647977232
528.044,5.579609881
528.322,5.516123908
528.599,5.4541113
528.876,5.394570311
529.154,5.336329963
529.431,5.275162049
529.708,5.210300066
529.986,5.151448334
530.263,5.082014339
530.540,5.01943106
530.817,4.956738623
531.094,4.890292539
531.371,4.81804002
531.648,4.750466734
531.926,4.680341518
532.203,4.622193163
532.480,4.562986475
532.757,4.507618636
533.034,4.451025531
533.311,4.398799743
533.588,4.34216171
533.864,4.291708341
534.141,4.227048434
534.418,4.159878403
534.695,4.086778943
534.972,4.01745612
535.249,3.956334538
535.525,3.899731474
535.802,3.840288345
536.079,3.78379307
536.355,3.724448324
536.632,3.670660234
536.909,3.611278055
537.185,3.558159852
537.462,3.503001984
537.739,3.448139809
538.015,3.396999107
538.292,3.345445477
538.568,3.291073207
538.845,3.240684761
539.121,3.187189688
539.397,3.134714378
539.674,3.083895344
539.950,3.036278526
540.227,2.99028578
540.503,2.950983105
540.779,2.909044438
541.055,2.869810387
541.332,2.823425857
541.608,2.775172257
541.884,2.729005369
542.160,2.688146911
542.436,2.642380099
542.713,2.597060852
542.989,2.555679207
543.265,2.511274794
543.541,2.465500276
543.817,2.423990561
544.093,2.382824096
544.369,2.347646365
544.645,2.310781989
544.921,2.277067849
545.197,2.238036387
545.473,2.199047388
545.748,2.158116926
546.024,2.11903662
546.300,2.085501914
546.576,2.049864658
546.852,2.013605288
547.127,1.978860596
547.403,1.944326027
547.679,1.912007058
547.954,1.877925928
548.230,1.844053056
548.506,1.808153654
548.781,1.775535462
549.057,1.741556529
549.332,1.711368354
549.608,1.679637037
549.883,1.647392068
550.159,1.617559631
550.434,1.593421356
550.710,1.568401327
550.985,1.54447425
551.260,1.518539287
551.536,1.491884533
551.811,1.462289475
552.086,1.433832573
552.362,1.402019654
552.637,1.374415781
552.912,1.344217189
553.187,1.317811496
553.463,1.293511814
553.738,1.270740398
554.013,1.245861102
554.288,1.222011636
554.563,1.197804083
554.838,1.175247216
555.113,1.154942449
555.388,1.136465106
555.663,1.116893028
555.938,1.102021673
556.213,1.081252346
556.488,1.062112896
556.763,1.04583752
557.038,1.027818789
557.312,1.008844542
557.587,0.993099396
557.862,0.976185923
558.137,0.958674961
558.411,0.941796492
558.686,0.923143664
558.961,0.905667024
559.236,0.890574796
559.510,0.871610648
559.785,0.856678005
560.059,0.841603084
560.334,0.822212957
560.608,0.803276946
560.883,0.787610348
561.157,0.773274217
561.432,0.760029883
561.706,0.748117283
561.981,0.735562954
562.255,0.720653605
562.529,0.708447064
562.804,0.693239353
563.078,0.681631613
563.352,0.669495096
563.627,0.657398403
563.901,0.644875745
564.175,0.634683259
564.449,0.622746641
564.723,0.609900294
564.998,0.59796473
565.272,0.586965112
565.546,0.575488786
565.820,0.566677841
566.094,0.55660454
566.368,0.549493882
566.642,0.538969459
566.916,0.527809464
567.190,0.518099768
567.464,0.510108548
567.738,0.49940254
568.011,0.491031676
568.285,0.481001629
568.559,0.471703633
568.833,0.461791575
569.107,0.452247184
569.380,0.443940385
569.654,0.435350253
569.928,0.427197022
570.201,0.419631024
570.475,0.41212315
570.749,0.403366881
571.022,0.395116518
571.296,0.387651441
571.569,0.379068725
571.843,0.373387916
572.116,0.368343305
572.390,0.362498794
572.663,0.357242479
572.937,0.351877403
573.210,0.345254327
573.483,0.338131766
573.757,0.330362387
574.030,0.32203605
574.303,0.317212593
574.576,0.310132664
574.850,0.304445505
575.123,0.301309982
575.396,0.293837929
575.669,0.285564389
575.942,0.281188467
576.215,0.276270656
576.489,0.271530697
576.762,0.267057832
577.035,0.261431652
577.308,0.257996609
577.581,0.254119884
577.854,0.246911347
578.126,0.24436891
578.399,0.240512801
578.672,0.233226371
578.945,0.228273991
579.218,0.226672054
579.491,0.222937233
579.764,0.218957647
580.036,0.215045638
580.309,0.209172513
580.582,0.206781644
580.854,0.200493432
581.127,0.197139121
581.400,0.19540373
581.672,0.191619923
581.945,0.187019597
582.217,0.185501804
582.490,0.183401321
582.762,0.179413651
583.035,0.174736108
583.307,0.174524246
583.580,0.1715448
583.852,0.170688904
584.125,0.167224661
584.397,0.165866728
584.669,0.160001462
584.941,0.158864624
585.214,0.154054444
585.486,0.154204406
585.758,0.148635805
586.030,0.146631432
586.302,0.144995063
586.575,0.143996313
586.847,0.141039162
587.119,0.140093513
587.391,0.137771866
587.663,0.136049815
587.935,0.133965449
588.207,0.135849862
588.479,0.131805542
588.751,0.129486973
589.023,0.124871483
589.295,0.126039202
589.567,0.122888338
589.838,0.121371967
590.110,0.118316175
590.382,0.115483918
590.654,0.113973219
590.925,0.110449993
591.197,0.107666639
591.469,0.106219802
591.740,0.10279804
592.012,0.103097037
592.284,0.103809186
592.555,0.103906057
592.827,0.098477721
593.098,0.096832039
593.370,0.093670598
593.641,0.095555088
593.913,0.0947204
594.184,0.09313909
594.456,0.0916544
594.727,0.091581456
594.998,0.088449925
595.270,0.086821664
595.541,0.083790435
595.812,0.081277793
596.083,0.079429309
596.355,0.081646134
596.626,0.081491945
596.897,0.080765026
597.168,0.076100111
597.439,0.074974232
597.710,0.071826769
597.981,0.071682212
598.252,0.067051131
598.523,0.065629699
598.794,0.066499394
599.065,0.065249496
599.336,0.063783105
599.607,0.06443913
599.878,0.063217217
600.149,0.061764884
600.420,0.060144845
600.691,0.061490768
600.961,0.060523893
601.232,0.061626624
601.503,0.061476197
601.773,0.062420515
602.044,0.061396307
602.315,0.059683861
602.585,0.057937342
602.856,0.058962749
603.127,0.056481941
603.397,0.055537087
603.668,0.054274439
603.938,0.056668193
604.209,0.05599217
604.479,0.054965065
604.750,0.05335666
605.020,0.05057788
605.290,0.050825541
605.561,0.053534514
605.831,0.05294868
606.101,0.052282262
606.371,0.048032362
606.642,0.046862833
606.912,0.045254885
607.182,0.0454171
607.452,0.044045688
607.722,0.042064284
607.992,0.03879344
608.262,0.038907079
608.533,0.039497671
608.803,0.040003548
609.073,0.037158563
609.343,0.034995006
609.612,0.032784854
609.882,0.03491574
610.152,0.033953285
610.422,0.03464154
610.692,0.031414815
610.962,0.029383879
611.232,0.028456197
611.501,0.028768108
611.771,0.027661364
612.041,0.025394212
612.310,0.023541859
612.580,0.022261563
612.850,0.022736773
613.119,0.022695559
613.389,0.019928063
613.658,0.020986873
613.928,0.01754165
614.197,0.02089635
614.467,0.019419385
614.736,0.021399933
615.006,0.02061795
615.275,0.019749627
615.545,0.017766948
615.814,0.016338996
616.083,0.018634025
616.352,0.01902338
616.622,0.018490367
616.891,0.020060894
617.160,0.016789168
617.429,0.016475751
617.699,0.012635136
617.968,0.014629658
618.237,0.012510391
618.506,0.013026784
618.775,0.01468347
619.044,0.018665407
619.313,0.019651078
619.582,0.018331182
619.851,0.017382847
620.120,0.018334645
620.389,0.019111044
620.657,0.019947575
620.926,0.021771932
621.195,0.022615042
621.464,0.023781351
621.733,0.026010009
622.001,0.027204179
622.270,0.02723456
622.539,0.026258233
622.807,0.026523913
623.076,0.02479447
623.345,0.022642031
623.613,0.022280919
623.882,0.021234858
624.150,0.023127663
624.419,0.022911754
624.687,0.023919039
624.956,0.023699612
625.224,0.021620021
625.492,0.021392085
625.761,0.019029827
626.029,0.016843361
626.298,0.01533919
626.566,0.016625339
626.834,0.017915566
627.102,0.018682156
627.370,0.017362718
627.639,0.01507849
627.907,0.015598615
628.175,0.017505447
628.443,0.015856371
628.711,0.016182053
628.979,0.016299752
629.247,0.017951211
629.515,0.015466223
629.783,0.017282838
630.051,0.017550054
630.319,0.016633914
630.587,0.015513242
630.855,0.018032281
631.122,0.020652192
631.390,0.020396543
631.658,0.018555538
631.926,0.018773437
632.194,0.015248687
632.461,0.01580739
632.729,0.014947125
632.997,0.018381933
633.264,0.01625513
633.532,0.014037606
633.799,0.014745345
634.067,0.017145253
634.334,0.015484828
634.602,0.014222548
634.869,0.012511429
635.137,0.01209777
635.404,0.010327608
635.671,0.013522949
635.939,0.011641605
636.206,0.011909147
636.473,0.013870083
636.741,0.014553784
637.008,0.017058332
637.275,0.018531538
637.542,0.015903688
637.809,0.015701378
638.077,0.016485179
638.344,0.019754154
638.611,0.021420355
638.878,0.024393877
639.145,0.022446899
639.412,0.023356438
639.679,0.023050489
639.946,0.022614719
640.213,0.019947407
640.479,0.016661353
640.746,0.014539083
641.013,0.015793206
641.280,0.017619477
641.547,0.015830824
641.814,0.015886378
642.080,0.015715081
642.347,0.013168073
642.614,0.01548257
642.880,0.014018727
643.147,0.010916245
643.413,0.010487006
643.680,0.01540889
643.947,0.016741468
644.213,0.019427726
644.480,0.017936787
644.746,0.017353005
645.012,0.017242672
645.279,0.01403811
645.545,0.012476584
645.812,0.010901409
646.078,0.009176393
646.344,0.012127121
646.610,0.01389694
646.877,0.014441346
647.143,0.009237502
647.409,0.010972349
647.675,0.007317727
647.941,0.005026153
648.207,0.002432745
648.473,0.004155152
648.740,0.006364996
649.006,0.005580852
649.272,0.008664737
649.537,0.009149407
649.803,0.007690947
650.069,0.008831375
650.335,0.007111689
650.601,0.009183541
650.867,0.007546971
651.133,0.008135868
651.398,0.010629399
651.664,0.013179275
651.930,0.01252791
652.196,0.011103443
652.461,0.009120705
652.727,0.009873576
652.992,0.008532759
653.258,0.009515342
653.524,0.008381608
653.789,0.006963872
654.055,0.00747263
654.320,0.008764454
654.586,0.011374838
654.851,0.01180628
655.116,0.009745602
655.382,0.008945639
655.647,0.009696587
655.912,0.012335728
656.178,0.010229625
656.443,0.012450505
656.708,0.011057238
656.973,0.011987377
657.239,0.012595991
657.504,0.012582355
657.769,0.009603534
658.034,0.010088732
658.299,0.010619682
658.564,0.013043157
658.829,0.013542604
659.094,0.015819898
659.359,0.014312034
659.624,0.012257434
659.889,0.010255927
660.154,0.009754301
660.418,0.009094442
660.683,0.00907587
660.948,0.008590864
661.213,0.011291217
661.477,0.007178312
661.742,0.006766606
662.007,0.00291206
662.271,0.003027751
662.536,-0.000671644
662.801,-0.001557661
663.065,0.000905166
663.330,0.002381553
663.594,0.001003771
663.859,0.000652199
664.123,-0.001296181
664.388,-0.000263243
664.652,-0.002684773
664.916,-0.003699602
665.181,-0.003730379
665.445,0.000322213
665.709,-0.002434311
665.974,-0.000793525
666.238,0.001690604
666.502,0.001045732
666.766,0.001030896
667.030,0.005688562
667.294,0.004664815
667.559,0.008810253
667.823,0.006844151
668.087,0.007081203
668.351,0.009955416
668.615,0.007837219
668.879,0.005142988
669.143,0.006882754
669.406,0.006592489
669.670,0.008064848
669.934,0.008184142
670.198,0.00773768
670.462,0.005210041
670.726,0.007607433
670.989,0.003572318
671.253,0.007032893
671.517,0.009146924
671.780,0.007555517
672.044,0.011318701
672.307,0.011335031
672.571,0.014518058
672.835,0.015166231
673.098,0.011687793
673.362,0.013230275
673.625,0.012122255
673.888,0.014164803
674.152,0.013986752
674.415,0.015948716
674.679,0.013463216
674.942,0.014049813
675.205,0.014258448
675.468,0.013045375
675.732,0.012936801
675.995,0.009601401
676.258,0.01032922
676.521,0.01510357
676.784,0.012854715
677.047,0.014007165
677.310,0.012992338
677.573,0.011718946
677.836,0.011399463
678.099,0.011667185
678.362,0.009416494
678.625,0.010759376
678.888,0.006843019
679.151,0.007934276
679.414,0.008181663
679.677,0.007458207
679.939,0.003300785
680.202,0.004889941
680.465,0.005841028
680.728,0.003593445
680.990,0.002672504
681.253,0.002166992
681.516,8.22357E-05
681.778,8.46558E-05
682.041,-0.000906125
682.303,0.004816559
682.566,0.004635882
682.828,0.002827632
683.091,-0.000910545
683.353,-0.000229134
683.615,-0.002688552
683.878,-0.004700005
684.140,-0.005482503
684.402,-0.004601773
684.665,-0.00631916
684.927,-0.005588945
685.189,-0.006995599
685.451,-0.00532357
685.713,-0.008328186
685.976,-0.008461374
686.238,-0.005374513
686.500,-0.001145001
686.762,-0.002367944
687.024,-0.000186618
687.286,0.001259879
687.548,0.000996303
687.810,-0.003510063
688.072,0.001383575
688.333,0.001956749
688.595,0.003174896
688.857,0.001199584
689.119,0.002964362
689.381,0.003712199
689.642,0.002525138
689.904,0.000210555
690.166,0.005894678
690.427,0.005124168
690.689,0.005494882
690.951,0.008017504
691.212,0.011772489
691.474,0.012985851
691.735,0.014570185
691.997,0.013524041
692.258,0.01439263
692.520,0.013226004
692.781,0.011712243
693.042,0.012630074
693.304,0.014890071
693.565,0.00866264
693.826,0.010027503
694.088,0.009571003
694.349,0.00693282
694.610,0.008762174
694.871,0.007994359
695.132,0.004668449
695.393,0.003628645
695.654,0.004162998
695.915,0.003510886
696.177,0.002906472
696.438,0.001508498
696.698,0.000495762
696.959,0.001831112
697.220,0.001493603
697.481,0.002476866
697.742,0.00291537
698.003,0.002732274
698.264,0.001314258
698.524,0.004313677
698.785,0.007208454
699.046,0.01000509
699.307,0.01008279
699.567,0.011570935
699.828,0.011967662
700.088,0.013093876
700.349,0.011919266
700.609,0.010376043
700.870,0.007154034
701.130,0.008735128
701.391,0.005932869
701.651,0.004565259
701.912,0.006458481
702.172,0.009918268
702.432,0.00741545
702.693,0.006949246
702.953,0.005561038
703.213,0.006569991
703.473,0.004468433
703.734,0.006712014
703.994,0.010725414
704.254,0.016342997
704.514,0.013164724
704.774,0.015922508
705.034,0.013980613
705.294,0.011036013
705.554,0.003934271
705.814,0.004173589
706.074,0.005595944
706.334,0.003989469
706.594,0.001497737
706.854,0.003480495
707.113,0.001752033
707.373,-0.000525466
707.633,-0.004978966
707.893,-0.004086835
708.152,-0.003788669
708.412,-0.002759889
708.672,-0.003742187
708.931,0.001479616
709.191,0.002662407
709.451,0.003443497
709.710,0.005768453
709.970,0.007493068
710.229,0.003907471
710.488,0.005961398
710.748,0.003507861
711.007,0.005593042
711.267,0.006195649
711.526,0.003929996
711.785,0.005540467
712.044,0.009390009
712.304,0.006595166
712.563,0.004611161
712.822,0.004152836
713.081,0.003178149
713.340,0.002137434
713.599,0.004108936
713.858,0.002262937
714.117,0.007495688
714.377,0.005249155
714.635,0.007703647
714.894,0.010814123
715.153,0.013265178
715.412,0.012604037
715.671,0.014000747
715.930,0.011466904
716.189,0.011173648
716.447,0.012651434
716.706,0.016607365
716.965,0.017385361
717.224,0.018137374
717.482,0.014020908
717.741,0.016739102
717.999,0.01498785
718.258,0.013787075
718.517,0.010658351
718.775,0.009100149
719.034,0.011109648
719.292,0.016083368
719.550,0.014333654
719.809,0.013439135
720.067,0.010081809
720.326,0.01057567
720.584,0.00991799
720.842,0.012596221
721.100,0.009583836
721.359,0.012114594
721.617,0.009563049
721.875,0.012143618
722.133,0.014710392
722.391,0.014170473
722.649,0.011083306
722.907,0.016635961
723.165,0.015191624
723.423,0.017829676
723.681,0.014253095
723.939,0.017535662
724.197,0.013956378
724.455,0.016696933
724.713,0.01502583
724.970,0.015824338
725.228,0.01271943
725.486,0.012181779
725.744,0.011482946
726.001,0.013447752
726.259,0.008698866
726.517,0.013410299
726.774,0.011684553
727.032,0.01790588
727.289,0.016923651
727.547,0.020150027
727.804,0.0177578
728.062,0.017848545
728.319,0.016411647
728.577,0.017852178
728.834,0.015742771
729.091,0.014989787
729.349,0.011995333
729.606,0.01168014
729.863,0.0081485
730.120,0.006883693
730.378,-0.002004785
730.635,-0.002099134
730.892,-0.000371749
731.149,0.002717856
731.406,-0.000995653
731.663,0.004902282
731.920,0.004788551
732.177,0.00194315
732.434,0.001307155
732.691,0.004411534
732.948,0.003294423
733.205,-0.001949612
733.461,-0.000567941
733.718,0.005210134
733.975,0.00231517
734.232,0.001592686
734.488,-0.000481286
734.745,0.004811807
735.002,0.001594538
735.258,0.00229825
735.515,0.004651866
735.772,0.007341966
736.028,0.006241468
736.285,0.008415837
736.541,0.017349404
736.797,0.019955349
737.054,0.018010383
737.310,0.017484689
737.567,0.018868725
737.823,0.017377142
738.079,0.017467679
738.336,0.01976752
738.592,0.016127257
738.848,0.01672411
739.104,0.014167239
739.360,0.017861129
739.616,0.014156569
739.872,0.008438142
740.129,0.006650415
740.385,0.010756475
740.641,0.01452907
740.897,0.011696595
741.152,0.012919947
741.408,0.013187155
741.664,0.009326091
741.920,0.01298551
742.176,0.013861471
742.432,0.016624003
742.687,0.013126119
742.943,0.014359443
743.199,0.017338445
743.455,0.016089221
743.710,0.010066656
743.966,0.008333699
744.221,0.006022894
744.477,0.0030163
744.732,-0.002591105
744.988,-0.001491814
745.243,-0.004712594
745.499,-0.001620275
745.754,-0.00201062
746.010,0.000655316
746.265,0.00379253
746.520,0.007327657
746.776,0.006263371
747.031,0.011551837
747.286,0.012021118
747.541,0.015015707
747.796,0.02058433
748.051,0.026808611
748.307,0.025444578
748.562,0.0302692
748.817,0.026858496
749.072,0.02849834
749.327,0.022502551
749.582,0.025949425
749.836,0.023835337
750.091,0.023518912
750.346,0.022457769
750.601,0.023650558
750.856,0.017556259
751.111,0.014342891
751.365,0.011600917
751.620,0.012304988
751.875,0.010848675
752.129,0.008804748
752.384,0.002472119
752.639,0.009953817
752.893,0.001501725
753.148,0.003183604
753.402,0.003185684
753.657,0.004941721
753.911,0.004181302
754.165,0.007501578
754.420,0.00841685
754.674,0.008291365
754.928,0.009345687
755.183,0.006435287
755.437,0.008103132
755.691,0.011728609
755.945,0.008612273
756.200,0.014124387
756.454,0.009006816
756.708,0.009331821
756.962,0.00652468
757.216,0.009827376
757.470,0.013322772
757.724,0.014770481
757.978,0.012109608
758.232,0.012880096
758.486,0.012067495
758.740,0.012692203
758.993,0.009575491
759.247,0.00877587
759.501,0.005779993
759.755,0.006098824
760.008,0.010502287
760.262,0.015613965
760.516,0.013416065
760.769,0.013409704
761.023,0.010389288
761.276,0.013848185
761.530,0.016200146
761.783,0.019931153
762.037,0.017655953
762.290,0.023866834
762.544,0.023961648
762.797,0.023748375
763.050,0.021736917
763.304,0.018782665
763.557,0.014903704
763.810,0.016483826
764.063,0.012325973
764.317,0.015057163
764.570,0.00995308
764.823,0.011753086
765.076,0.008218367
765.329,0.013516396
765.582,0.011538816
765.835,0.010744867
766.088,0.01426066
766.341,0.017887581
766.594,0.015649009
766.847,0.014677336
767.100,0.005303722
767.353,0.006374168
767.605,0.004812746
767.858,0.006391797
768.111,-2.25319E-05
768.364,0.002983262
768.616,-0.004176747
768.869,-0.005299549
769.121,-0.010268984
769.374,-0.014966857
769.627,-0.01600645
769.879,-0.012725186
770.132,-0.016438182
770.384,-0.010764837
770.636,-0.011724775
770.889,-0.007512029
771.141,-0.006649939
771.393,-0.004814231
771.646,-0.007994966
771.898,-0.006543054
772.150,-0.008757144
772.403,-0.000678335
772.655,0.005476033
772.907,0.008905039
773.159,0.005508012
773.411,0.006804633
773.663,0.004439518
773.915,0.005377332
774.167,0.003406945
774.419,0.00829733
774.671,0.001862971
774.923,0.00135366
775.175,0.001731653
775.427,0.005043873
775.678,0.000847647
775.930,0.004061826
776.182,-0.003475019
776.434,-0.003604311
776.685,-0.00195267
776.937,0.001176006
777.189,-0.000948258
777.440,-0.000253277
777.692,-0.006910862
777.943,0.002159219
778.195,0.002220043
778.446,0.006716616
778.698,0.001415786
778.949,0.001725299
779.200,-0.004618091
779.452,0.0007299
779.703,0.006618989
779.954,0.001478284
780.206,-0.000612668
780.457,0.000811934
780.708,-0.001243798
780.959,0.003290647
781.210,0.003523348
781.461,0.007455485
781.712,0.000330607
781.964,0.005729613
782.214,0.005088311
782.465,0.005287804
782.716,0.003441156
782.967,0.000325949
783.218,0.007606295
783.469,0.010504984
783.720,0.00994828
783.971,0.00645177
784.221,0.007652924
784.472,0.006617102
784.723,0.003054395
784.973,0.007957095
785.224,0.004286822
785.475,0.007253953
785.725,0.007626138
785.976,0.009027208
786.226,0.00696521
786.477,0.003743145
786.727,0.006709671
786.978,0.002890903
787.228,0.000355791
787.478,-0.005279985
787.729,-0.003451042
787.979,-0.002567276
788.229,-0.008387725
788.479,-0.007705229
788.730,-0.009665658
788.980,-0.009492474
789.230,-0.015084651
789.480,-0.01486821
789.730,-0.015690238
789.980,-0.017159588
790.230,-0.010917498
790.480,-0.002349836
790.730,0.003968131
790.980,-0.000923679
791.230,-0.00042773
791.480,0.004317264
791.729,0.004604787
791.979,0.004166958
792.229,0.001445131
792.479,0.008345752
792.728,0.00500273
792.978,0.007999377
793.228,0.003359908
793.477,-8.47574E-05
793.727,-0.003803823
793.976,-0.003505652
794.226,-0.003935911
794.475,-0.000393709
794.725,-0.001911646
794.974,-0.003281041
795.224,-0.007255272
795.473,-0.003498914
795.722,-0.005729712
795.971,0.000769594
796.221,-0.002829776
796.470,-0.00183445
796.719,-0.001844984
796.968,0.000553855
797.217,-0.007191202
797.466,-0.006016837
797.716,-0.01122485
797.965,-0.004637688
798.214,0.000423054
798.463,0.006556386
798.711,0.004556306
798.960,0.009328279
799.209,0.00461447
799.458,0.010322771
799.707,0.007368611
799.956,0.013847849
800.204,0.008360859
800.453,0.01263042
800.702,0.012929562
800.950,0.017442944
801.199,0.009674641
801.448,0.009589496
801.696,0.00711761
801.945,0.005802944
802.193,0.003539051
802.442,0.007391173
802.690,0.002696162
802.938,0.006127081
803.187,0.000269534
803.435,0.002742239
803.683,-0.001813039
803.932,-0.003632828
804.180,-0.005925677
804.428,-0.005414762
804.676,-0.006488185
804.924,-0.005969714
805.173,-0.00743189
805.421,-0.008326718
805.669,-0.007551423
805.917,-0.006001055
806.165,-0.009204034
806.413,-0.003280212
806.661,0.000787106
806.909,0.006418043
807.156,0.008430135
807.404,0.00801499
807.652,0.00871978
807.900,0.007561865
808.147,0.003216494
808.395,0.008036075
808.643,0.006099012
808.890,0.000241893
809.138,-0.004149641
809.386,0.00148994
809.633,-0.001180831
809.881,-0.007625987
810.128,-0.007219417
810.376,-0.007877769
810.623,-0.011434937
810.870,-0.012809281
811.118,-0.01754983
811.365,-0.003187518
811.612,-0.004856052
811.860,-0.002990998
812.107,-0.001580096
812.354,0.001620306
812.601,0.000376576
812.848,-0.001555504
813.095,0.000389542
813.342,-0.001584739
813.589,-0.000511567
813.836,-0.001566051
814.083,0.00283326
814.330,0.005303737
814.577,-0.003321138
814.824,0.001444613
815.071,0.003696351
815.318,0.00673545
815.564,0.001192681
815.811,0.004522882
816.058,0.006525388
816.305,0.006927262
816.551,0.012053527
816.798,0.010217728
817.044,0.016297576
817.291,0.016670997
817.537,0.017044134
817.784,0.011218469
818.030,0.004672916
818.277,0.001585371
818.523,0.000672726
818.770,0.00685493
819.016,0.004488126
819.262,0.006812763
819.508,0.002114187
819.755,0.001927775
820.001,0.005361435
820.247,0.002618706
820.493,-0.00725414
820.739,-0.003259673
820.985,-0.001680124
821.231,0.003962817
821.477,0.007827664
821.723,0.0105985
821.969,0.009888648
822.215,0.011572363
822.461,0.005969554
822.707,0.01653158
822.953,0.009134904
823.198,0.002018405
823.444,0.0079216
823.690,0.01389261
823.936,0.015084695
824.181,0.023120684
824.427,0.024537669
824.672,0.024322375
824.918,0.021097084
825.163,0.024385244
825.409,0.023161369
825.654,0.029406611
825.900,0.020837714
826.145,0.022589647
826.391,0.028504226
826.636,0.022414498
826.881,0.020117399
827.126,0.01329418
827.372,0.009005422
827.617,0.00329222
827.862,-0.004597104
828.107,-0.005595837
828.352,-0.008927309
828.597,-0.005360262
828.842,-0.01339784
829.087,-0.006948098
829.332,-0.005150484
829.577,-0.005355974
829.822,-0.009724949
830.067,-0.007253046
830.312,-0.0039991
830.557,-0.005657738
830.801,-0.006433533
831.046,0.000178843
831.291,0.005716115
831.535,0.006517007
831.780,0.00488493
832.025,0.01356203
832.269,0.011853107
832.514,0.014910606
832.758,0.015957259
833.003,0.030957382
833.247,0.036020579
833.492,0.035714085
833.736,0.032994157
833.980,0.037056451
834.225,0.032114501
834.469,0.034009576
834.713,0.031649168
834.957,0.027149375
835.202,0.02082118
835.446,0.017673956
835.690,0.01589538
835.934,0.014945668
836.178,0.008626009
836.422,0.005257801
836.666,0.001891975
836.910,0.009304887
837.154,0.009280701
837.398,0.014944038
837.642,0.01360527
837.885,0.017199395
838.129,0.009287405
838.373,0.010584395
838.617,0.009733641
838.860,0.008355927
839.104,0.004179161
839.348,0.00156808
839.591,-0.00030078
839.835,0.00309956
840.078,-0.002016463
840.322,-0.005003521
840.565,-0.011720633
840.809,-0.011284039
841.052,-0.011722637
841.295,-0.002170987
841.539,-0.004815177
841.782,0.003087573
842.025,-0.004564532
842.269,-0.000590036
842.512,-0.002306093
842.755,-0.001131306
842.998,-0.000121872
843.241,-0.002947951
843.484,-0.003851323
843.727,-0.000152309
843.970,-0.007307354
844.213,-0.008560532
844.456,-0.010288565
844.699,-0.006790303
844.942,-0.017212193
845.185,-0.009097803
845.428,-0.00968883
845.670,-0.004304161
845.913,-0.009671913
846.156,-0.013520055
846.398,-0.011167729
846.641,-0.009138725
846.884,-0.016847432
847.126,-0.013261503
847.369,-0.012032792
847.611,-0.01290915
847.854,-0.017328169
848.096,-0.010376575
848.339,-0.012042081
848.581,-0.011244951
848.823,-0.014754399
849.066,-0.012154454
849.308,-0.014989063
849.550,-0.012786859
849.792,-0.021629811
850.035,-0.012380028
850.277,-0.015953349
850.519,-0.013519573
850.761,-0.008744384
851.003,-0.006139623
851.245,-0.012257003
851.487,-0.014850507
851.729,-0.021406999
851.971,-0.015606211
852.213,-0.011187749
852.455,-0.007139332
852.696,-0.007213805
852.938,0.000558441
853.180,-0.00452396
853.422,0.003687518
853.663,0.000816196
853.905,-0.001566144
854.147,-0.004397598
854.388,0.000397795
854.630,0.001073791
854.871,0.00681224
855.113,-0.002929369
855.354,-0.006275632
855.596,-0.007380131
855.837,-0.002185736
856.078,-0.002790464
856.320,0.000125662
856.561,-0.005976345
856.802,-0.012106463
857.043,-0.012981418
857.284,-0.004382445
857.526,-0.007460179
857.767,-0.006211336
858.008,-0.007319577
858.249,-0.000215785
858.490,0.00014332
858.731,0.003722997
858.972,0.000465379
859.213,-0.000566403
859.454,-0.003882828
859.694,-0.004891596
859.935,-0.001275747
860.176,-0.003661422
860.417,-0.008315496
860.657,-0.002512898
860.898,-0.000109871
861.139,-0.001725224
861.379,-0.000777256
861.620,-0.003142177
861.861,-0.002823725
862.101,0.000192661
862.341,0.00350115
862.582,0.006756331
862.822,-0.000524241
863.063,0.003796126
863.303,0.004745027
863.543,0.005128261
863.784,-0.000667174
864.024,-0.003246838
864.264,-0.002174224
864.504,-0.006857033
864.744,-0.004032469
864.985,-0.003013831
865.225,-0.008990959
865.465,-0.00374657
865.705,-0.001964902
865.945,0.004031648
866.185,-0.001712636
866.424,-0.002647078
866.664,-0.005530146
866.904,0.000405191
867.144,0.003324115
867.384,0.009149169
867.624,0.012283137
867.863,0.012198182
868.103,0.013230106
868.343,0.01239286
868.582,0.001570484
868.822,0.001512812
869.061,0.000422416
869.301,0.008268504
869.540,0.01617957
869.780,0.019894361
870.019,0.014753057
870.258,0.013431467
870.498,0.006088554
870.737,0.003936359
870.976,0.007681085
871.216,0.006659497
871.455,0.00807065
871.694,0.011784188
871.933,0.014809121
872.172,0.02351989
872.411,0.013842252
872.650,0.014470654
872.889,0.012838154
873.128,0.006969148
873.367,0.003978786
873.606,0.013900819
873.845,0.010390871
874.084,0.008710166
874.323,0.005967346
874.561,0.00404404
874.800,0.009781323
875.039,0.003316666
875.277,-0.000420055
875.516,0.004298038
875.755,-0.00324252
875.993,-0.000687055
876.232,0.010239754
876.470,0.00951156
876.709,0.001781407
876.947,0.002124059
877.185,0.006589474
877.424,0.006109444
877.662,0.0084604
877.900,-0.000746086
878.139,0.001759491
878.377,0.003678775
878.615,0.006618941
878.853,0.011572665
879.091,0.009548018
879.329,0.006528813
879.567,0.003097679
879.805,0.001966096
880.043,0.004818194
880.281,0.000750328
880.519,-0.004664969
880.757,0.000279705
880.995,0.005412697
881.233,0.005416612
881.471,0.001029772
881.708,0.00387881
881.946,0.004347082
882.184,0.003101184
882.421,0.002000625
882.659,0.01587798
882.896,0.019378364
883.134,0.021096417
883.372,0.020228695
883.609,0.032023324
883.846,0.028643821
884.084,0.028608539
884.321,0.03194692
884.559,0.03294126
884.796,0.029358326
885.033,0.027597913
885.270,0.026562614
885.508,0.02665174
885.745,0.018600335
885.982,0.02034543
886.219,0.02032266
886.456,0.025030314
886.693,0.018053995
886.930,0.011837853
887.167,0.015810962
887.404,0.015141625
887.641,0.01482932
887.878,0.015075181
888.114,0.009836299
888.351,0.012447754
888.588,0.012229956
888.825,0.01557564
889.061,0.012498425
889.298,0.011287949
889.535,-0.034857153
889.771,0.013214926
890.008,-0.007669069
890.244,0.036235258
890.481,0.010484038
890.717,0.006690947
